Wavelength nm.	promissao_Amostra_09a_vs_Buffer	promissao_Amostra_09b_vs_Buffer	promissao_Amostra_14a_vs_Buffer	promissao_Amostra_14b_vs_Buffer	promissao_Amostra_16a_vs_Buffer	promissao_Amostra_16b_vs_Buffer	promissao_Amostra_17a_vs_Buffer	promissao_Amostra_17b_vs_Buffer	promissao_Amostra_18a_vs_Buffer	promissao_Amostra_18b_vs_Buffer	promissao_Amostra_19a_vs_Buffer	promissao_Amostra_19b_vs_Buffer	promissao_Amostra_21a_vs_Buffer	promissao_Amostra_21b_vs_Buffer	promissao_Ar_vs_Ar_1	promissao_Ar_vs_Ar_2	promissao_Ar_vs_Ar_3	promissao_Ar_vs_Ar_4	promissao_Ar_vs_Buffer_1	promissao_Ar_vs_Buffer_2	promissao_Ar_vs_Buffer_2_2	promissao_Ar_vs_Buffer_3	promissao_Ar_vs_Buffer_3_filtro	promissao_Ar_vs_Buffer_4	promissao_Ar_vs_Buffer_4_filtro	promissao_Ar_vs_Buffer_5	promissao_Ar_vs_Buffer_6	promissao_Ar_vs_Buffer_7	promissao_Ar_vs_Buffer_8
500,00	0,048072	0,048443	0,050422	0,051732	0,069545	0,075329	0,053567	0,060567	0,068227	0,070652	0,059940	0,057886	0,062395	0,053179	-0,000104	0,000086	-0,000032	-0,000065	0,035097	0,034671	0,035147	0,035428	0,036670	0,035803	0,034731	0,035576	0,035445	0,035708	0,034714
501,00	0,048011	0,048381	0,050366	0,051688	0,069387	0,075129	0,053462	0,060426	0,068098	0,070482	0,059806	0,057777	0,062252	0,053090	-0,000084	0,000066	-0,000049	-0,000065	0,035090	0,034679	0,035138	0,035387	0,036665	0,035756	0,034734	0,035547	0,035407	0,035700	0,034695
502,00	0,047906	0,048285	0,050266	0,051593	0,069158	0,074861	0,053325	0,060237	0,067878	0,070250	0,059612	0,057632	0,062073	0,052970	-0,000083	0,000048	-0,000064	-0,000041	0,035077	0,034667	0,035109	0,035352	0,036644	0,035714	0,034721	0,035505	0,035369	0,035691	0,034683
503,00	0,047808	0,048192	0,050170	0,051517	0,068938	0,074598	0,053186	0,060047	0,067677	0,070036	0,059455	0,057484	0,061898	0,052858	-0,000083	0,000026	-0,000063	-0,000014	0,035088	0,034664	0,035103	0,035310	0,036637	0,035663	0,034732	0,035470	0,035344	0,035684	0,034678
504,00	0,047709	0,048089	0,050050	0,051396	0,068726	0,074372	0,053072	0,059872	0,067465	0,069825	0,059318	0,057361	0,061731	0,052736	-0,000087	0,000025	-0,000041	0,000013	0,035081	0,034647	0,035093	0,035301	0,036627	0,035664	0,034709	0,035465	0,035344	0,035653	0,034666
505,00	0,047608	0,047984	0,049939	0,051297	0,068507	0,074145	0,052968	0,059696	0,067287	0,069617	0,059181	0,057215	0,061538	0,052611	-0,000058	0,000023	-0,000021	0,000025	0,035064	0,034664	0,035092	0,035277	0,036625	0,035646	0,034691	0,035449	0,035332	0,035626	0,034643
506,00	0,047537	0,047878	0,049839	0,051204	0,068309	0,073968	0,052872	0,059576	0,067111	0,069433	0,059058	0,057089	0,061365	0,052464	-0,000041	0,000036	-0,000007	0,000023	0,035034	0,034659	0,035078	0,035293	0,036606	0,035674	0,034678	0,035454	0,035327	0,035604	0,034624
507,00	0,047442	0,047764	0,049740	0,051103	0,068089	0,073769	0,052756	0,059430	0,066921	0,069264	0,058904	0,056946	0,061197	0,052349	-0,000027	0,000034	0,000012	0,000017	0,035017	0,034666	0,035064	0,035279	0,036586	0,035665	0,034673	0,035448	0,035326	0,035587	0,034603
508,00	0,047362	0,047655	0,049645	0,051015	0,067884	0,073548	0,052606	0,059282	0,066724	0,069095	0,058773	0,056803	0,061017	0,052201	-0,000032	0,000019	0,000029	-0,000002	0,035013	0,034637	0,035044	0,035256	0,036568	0,035632	0,034673	0,035459	0,035335	0,035558	0,034586
509,00	0,047223	0,047533	0,049520	0,050863	0,067698	0,073320	0,052480	0,059132	0,066519	0,068921	0,058621	0,056678	0,060821	0,052076	-0,000047	0,000003	0,000042	-0,000011	0,034970	0,034605	0,035026	0,035235	0,036536	0,035595	0,034649	0,035458	0,035336	0,035538	0,034562
510,00	0,047131	0,047450	0,049425	0,050774	0,067538	0,073110	0,052398	0,058997	0,066347	0,068760	0,058494	0,056559	0,060646	0,051933	-0,000054	0,000001	0,000042	-0,000016	0,034955	0,034579	0,035011	0,035217	0,036529	0,035582	0,034632	0,035439	0,035330	0,035530	0,034561
511,00	0,047036	0,047367	0,049333	0,050650	0,067366	0,072934	0,052314	0,058856	0,066166	0,068598	0,058355	0,056438	0,060473	0,051817	-0,000048	0,000002	0,000050	-0,000027	0,034933	0,034578	0,035013	0,035227	0,036520	0,035605	0,034626	0,035427	0,035310	0,035520	0,034564
512,00	0,046956	0,047276	0,049238	0,050576	0,067181	0,072755	0,052206	0,058698	0,065990	0,068435	0,058230	0,056288	0,060321	0,051701	-0,000063	-0,000011	0,000046	-0,000030	0,034947	0,034579	0,034984	0,035201	0,036502	0,035613	0,034605	0,035394	0,035287	0,035526	0,034546
513,00	0,046842	0,047152	0,049115	0,050471	0,067018	0,072558	0,052066	0,058562	0,065800	0,068253	0,058099	0,056140	0,060138	0,051575	-0,000083	-0,000014	0,000038	-0,000028	0,034931	0,034546	0,034968	0,035198	0,036454	0,035603	0,034572	0,035358	0,035260	0,035521	0,034526
514,00	0,046739	0,047022	0,048995	0,050395	0,066855	0,072356	0,051941	0,058430	0,065641	0,068088	0,057976	0,056004	0,059968	0,051463	-0,000100	-0,000028	0,000048	-0,000018	0,034903	0,034535	0,034932	0,035173	0,036411	0,035573	0,034555	0,035324	0,035247	0,035526	0,034499
515,00	0,046640	0,046916	0,048885	0,050309	0,066712	0,072174	0,051841	0,058323	0,065442	0,067932	0,057846	0,055864	0,059780	0,051317	-0,000094	-0,000029	0,000060	-0,000040	0,034873	0,034525	0,034920	0,035182	0,036388	0,035553	0,034556	0,035299	0,035232	0,035480	0,034475
516,00	0,046545	0,046813	0,048814	0,050217	0,066551	0,072005	0,051743	0,058201	0,065268	0,067766	0,057713	0,055739	0,059611	0,051196	-0,000080	-0,000040	0,000060	-0,000056	0,034867	0,034539	0,034895	0,035145	0,036386	0,035523	0,034577	0,035278	0,035204	0,035449	0,034444
517,00	0,046468	0,046728	0,048714	0,050113	0,066416	0,071852	0,051651	0,058084	0,065099	0,067618	0,057586	0,055627	0,059443	0,051067	-0,000083	-0,000050	0,000028	-0,000064	0,034867	0,034522	0,034903	0,035129	0,036380	0,035506	0,034570	0,035264	0,035191	0,035428	0,034440
518,00	0,046387	0,046660	0,048639	0,050039	0,066278	0,071704	0,051559	0,057967	0,064998	0,067482	0,057475	0,055545	0,059276	0,050979	-0,000055	-0,000046	0,000028	-0,000042	0,034851	0,034516	0,034909	0,035100	0,036378	0,035476	0,034570	0,035271	0,035196	0,035424	0,034452
519,00	0,046320	0,046591	0,048538	0,049976	0,066157	0,071558	0,051478	0,057859	0,064859	0,067362	0,057365	0,055428	0,059097	0,050847	-0,000045	-0,000051	0,000030	-0,000028	0,034831	0,034522	0,034923	0,035098	0,036371	0,035461	0,034570	0,035270	0,035203	0,035393	0,034456
520,00	0,046234	0,046512	0,048461	0,049913	0,066027	0,071425	0,051398	0,057756	0,064702	0,067199	0,057231	0,055294	0,058935	0,050743	-0,000035	-0,000048	0,000025	-0,000005	0,034843	0,034539	0,034918	0,035081	0,036364	0,035448	0,034566	0,035256	0,035174	0,035351	0,034437
521,00	0,046146	0,046411	0,048376	0,049826	0,065923	0,071305	0,051335	0,057659	0,064527	0,067033	0,057079	0,055124	0,058781	0,050650	-0,000045	-0,000060	-0,000010	0,000016	0,034845	0,034536	0,034897	0,035075	0,036371	0,035435	0,034548	0,035214	0,035123	0,035335	0,034425
522,00	0,046052	0,046318	0,048285	0,049728	0,065812	0,071209	0,051260	0,057558	0,064386	0,066881	0,056925	0,054979	0,058642	0,050592	-0,000052	-0,000063	-0,000033	0,000019	0,034846	0,034531	0,034879	0,035057	0,036362	0,035421	0,034535	0,035184	0,035085	0,035325	0,034435
523,00	0,045964	0,046255	0,048208	0,049662	0,065747	0,071109	0,051230	0,057491	0,064248	0,066737	0,056798	0,054834	0,058500	0,050511	-0,000039	-0,000030	-0,000046	0,000039	0,034828	0,034516	0,034885	0,035065	0,036370	0,035433	0,034547	0,035157	0,035063	0,035330	0,034466
524,00	0,045893	0,046201	0,048133	0,049601	0,065657	0,070990	0,051167	0,057393	0,064117	0,066602	0,056679	0,054721	0,058370	0,050425	-0,000045	-0,000020	-0,000056	0,000068	0,034838	0,034534	0,034892	0,035052	0,036342	0,035420	0,034574	0,035149	0,035048	0,035335	0,034486
525,00	0,045818	0,046121	0,048046	0,049533	0,065571	0,070885	0,051105	0,057286	0,063991	0,066476	0,056576	0,054621	0,058229	0,050320	-0,000054	-0,000008	-0,000043	0,000077	0,034838	0,034535	0,034874	0,035057	0,036318	0,035421	0,034551	0,035154	0,035039	0,035343	0,034493
526,00	0,045722	0,046017	0,047963	0,049459	0,065483	0,070779	0,051024	0,057167	0,063872	0,066365	0,056463	0,054514	0,058093	0,050219	-0,000064	-0,000028	-0,000038	0,000044	0,034851	0,034518	0,034851	0,035030	0,036282	0,035374	0,034527	0,035140	0,035026	0,035325	0,034467
527,00	0,045623	0,045909	0,047881	0,049369	0,065424	0,070702	0,050968	0,057085	0,063767	0,066250	0,056345	0,054405	0,057944	0,050124	-0,000062	-0,000017	-0,000022	-0,000002	0,034853	0,034491	0,034841	0,035016	0,036265	0,035372	0,034488	0,035121	0,035032	0,035313	0,034449
528,00	0,045540	0,045853	0,047817	0,049314	0,065381	0,070658	0,050945	0,057030	0,063668	0,066140	0,056228	0,054286	0,057788	0,050035	-0,000053	-0,000001	-0,000033	-0,000033	0,034860	0,034480	0,034859	0,035017	0,036265	0,035366	0,034516	0,035093	0,035038	0,035295	0,034420
529,00	0,045462	0,045783	0,047744	0,049242	0,065349	0,070632	0,050911	0,056957	0,063576	0,066031	0,056121	0,054207	0,057638	0,049949	-0,000066	0,000018	-0,000022	-0,000059	0,034849	0,034471	0,034867	0,035013	0,036255	0,035379	0,034533	0,035091	0,035038	0,035283	0,034402
530,00	0,045400	0,045725	0,047680	0,049202	0,065316	0,070619	0,050892	0,056891	0,063491	0,065933	0,056019	0,054117	0,057515	0,049859	-0,000077	0,000042	-0,000005	-0,000071	0,034853	0,034490	0,034895	0,035022	0,036261	0,035389	0,034546	0,035100	0,035020	0,035259	0,034381
531,00	0,045328	0,045648	0,047612	0,049150	0,065312	0,070583	0,050869	0,056820	0,063406	0,065840	0,055944	0,054048	0,057418	0,049773	-0,000068	0,000055	0,000028	-0,000074	0,034861	0,034484	0,034911	0,035013	0,036249	0,035380	0,034529	0,035110	0,035001	0,035258	0,034377
532,00	0,045284	0,045572	0,047533	0,049098	0,065296	0,070563	0,050857	0,056790	0,063314	0,065736	0,055853	0,053933	0,057315	0,049700	-0,000064	0,000069	0,000017	-0,000071	0,034869	0,034490	0,034910	0,035017	0,036246	0,035375	0,034503	0,035090	0,034980	0,035247	0,034395
533,00	0,045205	0,045504	0,047461	0,049032	0,065271	0,070515	0,050809	0,056737	0,063238	0,065658	0,055782	0,053848	0,057219	0,049644	-0,000052	0,000042	0,000000	-0,000076	0,034865	0,034462	0,034897	0,034978	0,036221	0,035352	0,034500	0,035066	0,034968	0,035234	0,034390
534,00	0,045129	0,045436	0,047396	0,048959	0,065246	0,070485	0,050769	0,056686	0,063174	0,065574	0,055696	0,053762	0,057165	0,049614	-0,000066	0,000023	-0,000020	-0,000051	0,034846	0,034451	0,034874	0,034958	0,036208	0,035330	0,034490	0,035059	0,034956	0,035216	0,034389
535,00	0,045049	0,045392	0,047355	0,048889	0,065277	0,070467	0,050751	0,056632	0,063132	0,065532	0,055636	0,053720	0,057112	0,049568	-0,000060	0,000002	-0,000007	-0,000026	0,034841	0,034440	0,034869	0,034950	0,036204	0,035323	0,034497	0,035058	0,034970	0,035212	0,034361
536,00	0,044953	0,045259	0,047225	0,048782	0,065284	0,070444	0,050713	0,056555	0,063014	0,065418	0,055512	0,053626	0,057023	0,049482	-0,000069	0,000002	-0,000017	0,000034	0,034768	0,034380	0,034820	0,034917	0,036143	0,035260	0,034446	0,035004	0,034908	0,035177	0,034326
537,00	0,044861	0,045128	0,047106	0,048663	0,065305	0,070450	0,050670	0,056501	0,062916	0,065346	0,055412	0,053530	0,056894	0,049375	-0,000081	0,000000	-0,000021	0,000045	0,034700	0,034315	0,034766	0,034878	0,036080	0,035212	0,034402	0,034955	0,034893	0,035125	0,034281
538,00	0,044758	0,044998	0,046991	0,048550	0,065306	0,070449	0,050615	0,056444	0,062826	0,065287	0,055309	0,053455	0,056784	0,049285	-0,000105	0,000002	-0,000027	0,000048	0,034637	0,034255	0,034715	0,034811	0,036013	0,035164	0,034358	0,034924	0,034885	0,035094	0,034250
539,00	0,044731	0,044949	0,046960	0,048500	0,065366	0,070503	0,050612	0,056430	0,062829	0,065299	0,055300	0,053426	0,056694	0,049217	-0,000110	-0,000013	-0,000032	0,000015	0,034651	0,034270	0,034735	0,034814	0,036025	0,035170	0,034378	0,034951	0,034929	0,035092	0,034249
540,00	0,044689	0,044895	0,046926	0,048457	0,065463	0,070564	0,050631	0,056437	0,062820	0,065305	0,055274	0,053404	0,056612	0,049168	-0,000111	-0,000012	-0,000026	-0,000020	0,034646	0,034264	0,034738	0,034821	0,036019	0,035198	0,034376	0,034956	0,034939	0,035103	0,034242
541,00	0,044664	0,044844	0,046883	0,048424	0,065582	0,070644	0,050661	0,056456	0,062832	0,065296	0,055260	0,053382	0,056525	0,049122	-0,000119	-0,000007	-0,000022	-0,000025	0,034625	0,034280	0,034733	0,034849	0,036020	0,035226	0,034371	0,034965	0,034934	0,035098	0,034243
542,00	0,044583	0,044775	0,046820	0,048356	0,065717	0,070734	0,050692	0,056479	0,062818	0,065279	0,055218	0,053345	0,056427	0,049076	-0,000122	0,000029	-0,000002	-0,000036	0,034599	0,034252	0,034708	0,034878	0,035997	0,035245	0,034346	0,034953	0,034952	0,035098	0,034240
543,00	0,044521	0,044708	0,046755	0,048295	0,065830	0,070801	0,050695	0,056468	0,062790	0,065240	0,055153	0,053289	0,056343	0,049010	-0,000129	0,000018	-0,000017	-0,000026	0,034588	0,034246	0,034698	0,034874	0,035974	0,035244	0,034327	0,034932	0,034918	0,035085	0,034222
544,00	0,044424	0,044615	0,046670	0,048216	0,065930	0,070856	0,050693	0,056437	0,062731	0,065191	0,055065	0,053227	0,056238	0,048924	-0,000136	0,000015	-0,000032	-0,000048	0,034548	0,034194	0,034679	0,034855	0,035915	0,035219	0,034287	0,034898	0,034871	0,035053	0,034165
545,00	0,044348	0,044540	0,046583	0,048155	0,066021	0,070891	0,050680	0,056401	0,062666	0,065164	0,054972	0,053165	0,056108	0,048821	-0,000129	0,000006	-0,000034	-0,000062	0,034497	0,034158	0,034632	0,034789	0,035866	0,035185	0,034241	0,034864	0,034803	0,034977	0,034108
546,00	0,044255	0,044458	0,046491	0,048082	0,066091	0,070911	0,050666	0,056360	0,062622	0,065134	0,054887	0,053081	0,055976	0,048723	-0,000123	0,000010	-0,000028	-0,000057	0,034442	0,034103	0,034587	0,034727	0,035813	0,035127	0,034199	0,034796	0,034748	0,034922	0,034072
547,00	0,044170	0,044369	0,046408	0,048004	0,066205	0,070965	0,050656	0,056346	0,062593	0,065106	0,054813	0,052999	0,055862	0,048650	-0,000105	0,000023	0,000001	-0,000026	0,034397	0,034066	0,034534	0,034661	0,035771	0,035086	0,034152	0,034739	0,034716	0,034863	0,034051
548,00	0,044075	0,044274	0,046323	0,047906	0,066339	0,071042	0,050647	0,056333	0,062559	0,065072	0,054723	0,052915	0,055792	0,048586	-0,000120	0,000020	0,000021	0,000000	0,034350	0,034022	0,034492	0,034602	0,035711	0,035046	0,034094	0,034666	0,034673	0,034823	0,034027
549,00	0,043961	0,044155	0,046224	0,047815	0,066494	0,071129	0,050647	0,056313	0,062518	0,065052	0,054620	0,052854	0,055693	0,048511	-0,000144	0,000030	0,000037	0,000017	0,034278	0,033965	0,034427	0,034536	0,035638	0,035015	0,034044	0,034614	0,034630	0,034751	0,033990
550,00	0,043870	0,044058	0,046148	0,047735	0,066618	0,071198	0,050632	0,056259	0,062496	0,065038	0,054517	0,052777	0,055579	0,048414	-0,000156	0,000027	0,000037	0,000022	0,034231	0,033914	0,034378	0,034476	0,035575	0,034931	0,034001	0,034563	0,034562	0,034695	0,033956
551,00	0,043797	0,043967	0,046091	0,047669	0,066763	0,071280	0,050634	0,056224	0,062472	0,065032	0,054453	0,052721	0,055467	0,048350	-0,000154	0,000016	0,000033	0,000034	0,034210	0,033861	0,034344	0,034424	0,035531	0,034859	0,033980	0,034529	0,034515	0,034642	0,033927
552,00	0,043762	0,043919	0,046036	0,047619	0,066952	0,071442	0,050680	0,056219	0,062471	0,065040	0,054406	0,052677	0,055388	0,048330	-0,000126	-0,000002	0,000049	0,000054	0,034229	0,033845	0,034341	0,034421	0,035531	0,034801	0,033965	0,034521	0,034476	0,034637	0,033918
553,00	0,043737	0,043881	0,045988	0,047591	0,067164	0,071627	0,050756	0,056253	0,062450	0,065071	0,054358	0,052633	0,055330	0,048314	-0,000113	-0,000011	0,000052	0,000053	0,034235	0,033828	0,034343	0,034420	0,035537	0,034808	0,033983	0,034508	0,034463	0,034627	0,033899
554,00	0,043722	0,043861	0,045950	0,047581	0,067391	0,071837	0,050846	0,056298	0,062493	0,065103	0,054330	0,052615	0,055284	0,048289	-0,000104	0,000006	0,000063	0,000039	0,034240	0,033845	0,034356	0,034447	0,035554	0,034813	0,033979	0,034512	0,034448	0,034634	0,033896
555,00	0,043690	0,043852	0,045957	0,047584	0,067644	0,072038	0,050946	0,056372	0,062561	0,065156	0,054322	0,052621	0,055248	0,048273	-0,000094	0,000032	0,000060	0,000017	0,034256	0,033895	0,034381	0,034468	0,035556	0,034849	0,034003	0,034526	0,034457	0,034647	0,033911
556,00	0,043690	0,043835	0,045979	0,047606	0,067934	0,072272	0,051060	0,056470	0,062668	0,065231	0,054345	0,052644	0,055229	0,048270	-0,000072	0,000045	0,000066	0,000011	0,034315	0,033960	0,034425	0,034499	0,035597	0,034881	0,034031	0,034569	0,034484	0,034676	0,033936
557,00	0,043691	0,043842	0,046018	0,047649	0,068227	0,072509	0,051172	0,056565	0,062752	0,065317	0,054340	0,052664	0,055216	0,048268	-0,000040	0,000041	0,000054	-0,000006	0,034372	0,034034	0,034480	0,034519	0,035658	0,034913	0,034104	0,034598	0,034525	0,034720	0,033969
558,00	0,043709	0,043846	0,046048	0,047693	0,068522	0,072770	0,051286	0,056663	0,062818	0,065396	0,054347	0,052667	0,055210	0,048274	-0,000039	0,000038	0,000026	-0,000021	0,034431	0,034083	0,034525	0,034541	0,035718	0,034948	0,034144	0,034620	0,034571	0,034752	0,033998
559,00	0,043702	0,043872	0,046059	0,047723	0,068817	0,073028	0,051405	0,056744	0,062898	0,065463	0,054348	0,052672	0,055191	0,048276	-0,000031	0,000036	0,000014	-0,000037	0,034467	0,034139	0,034581	0,034559	0,035760	0,034970	0,034189	0,034638	0,034604	0,034794	0,034027
560,00	0,043704	0,043874	0,046054	0,047718	0,069133	0,073293	0,051535	0,056845	0,062989	0,065539	0,054380	0,052681	0,055180	0,048295	-0,000049	0,000047	0,000013	-0,000039	0,034494	0,034166	0,034596	0,034595	0,035749	0,035009	0,034206	0,034676	0,034640	0,034840	0,034040
561,00	0,043710	0,043892	0,046068	0,047735	0,069449	0,073550	0,051639	0,056933	0,063113	0,065647	0,054422	0,052720	0,055159	0,048279	-0,000024	0,000049	0,000030	-0,000039	0,034532	0,034196	0,034622	0,034608	0,035781	0,035022	0,034264	0,034722	0,034683	0,034883	0,034059
562,00	0,043696	0,043891	0,046067	0,047729	0,069768	0,073816	0,051734	0,057032	0,063218	0,065753	0,054437	0,052735	0,055132	0,048269	-0,000017	0,000036	0,000017	-0,000034	0,034571	0,034204	0,034630	0,034639	0,035791	0,035025	0,034286	0,034736	0,034708	0,034894	0,034077
563,00	0,043673	0,043868	0,046041	0,047715	0,070098	0,074078	0,051841	0,057129	0,063315	0,065854	0,054424	0,052732	0,055091	0,048261	-0,000009	0,000035	-0,000013	-0,000026	0,034577	0,034195	0,034621	0,034641	0,035799	0,035020	0,034282	0,034738	0,034707	0,034886	0,034097
564,00	0,043630	0,043816	0,045985	0,047647	0,070434	0,074346	0,051935	0,057222	0,063368	0,065911	0,054400	0,052705	0,055063	0,048273	-0,000012	0,000035	-0,000039	0,000002	0,034557	0,034170	0,034600	0,034650	0,035759	0,035020	0,034253	0,034722	0,034680	0,034898	0,034106
565,00	0,043574	0,043760	0,045926	0,047598	0,070756	0,074596	0,052013	0,057293	0,063420	0,065970	0,054379	0,052689	0,055021	0,048261	-0,000009	0,000034	-0,000055	0,000013	0,034520	0,034136	0,034556	0,034622	0,035724	0,034995	0,034236	0,034692	0,034643	0,034877	0,034081
566,00	0,043524	0,043715	0,045904	0,047561	0,071063	0,074857	0,052058	0,057348	0,063500	0,066020	0,054352	0,052669	0,054977	0,048217	0,000010	0,000026	-0,000048	0,000045	0,034499	0,034119	0,034551	0,034581	0,035710	0,034953	0,034239	0,034654	0,034620	0,034852	0,034058
567,00	0,043467	0,043662	0,045860	0,047510	0,071369	0,075107	0,052122	0,057413	0,063581	0,066080	0,054298	0,052638	0,054881	0,048135	0,000006	0,000027	-0,000049	0,000037	0,034457	0,034074	0,034504	0,034532	0,035666	0,034907	0,034190	0,034596	0,034583	0,034773	0,034005
568,00	0,043396	0,043595	0,045798	0,047423	0,071696	0,075377	0,052194	0,057485	0,063640	0,066124	0,054250	0,052612	0,054791	0,048061	-0,000004	0,000052	-0,000050	0,000042	0,034395	0,034013	0,034435	0,034492	0,035608	0,034890	0,034113	0,034551	0,034554	0,034717	0,033989
569,00	0,043301	0,043499	0,045698	0,047320	0,072010	0,075638	0,052262	0,057548	0,063690	0,066185	0,054198	0,052583	0,054702	0,047996	-0,000047	0,000063	-0,000052	0,000035	0,034326	0,033938	0,034341	0,034458	0,035519	0,034862	0,034015	0,034501	0,034511	0,034656	0,033936
570,00	0,043236	0,043435	0,045639	0,047248	0,072332	0,075905	0,052309	0,057618	0,063742	0,066251	0,054130	0,052554	0,054585	0,047913	-0,000037	0,000061	-0,000061	0,000016	0,034284	0,033905	0,034299	0,034399	0,035472	0,034822	0,033991	0,034451	0,034459	0,034568	0,033881
571,00	0,043198	0,043392	0,045597	0,047203	0,072637	0,076167	0,052360	0,057688	0,063814	0,066336	0,054079	0,052537	0,054484	0,047828	-0,000020	0,000039	-0,000054	0,000001	0,034252	0,033892	0,034279	0,034353	0,035435	0,034763	0,033990	0,034427	0,034412	0,034493	0,033816
572,00	0,043201	0,043364	0,045571	0,047152	0,072987	0,076429	0,052440	0,057786	0,063875	0,066413	0,054051	0,052526	0,054389	0,047758	0,000023	0,000038	-0,000043	-0,000033	0,034245	0,033883	0,034283	0,034319	0,035426	0,034731	0,034001	0,034393	0,034374	0,034421	0,033772
573,00	0,043168	0,043305	0,045500	0,047095	0,073335	0,076698	0,052531	0,057886	0,063948	0,066496	0,054039	0,052515	0,054336	0,047707	0,000017	0,000044	-0,000037	-0,000055	0,034205	0,033842	0,034247	0,034328	0,035393	0,034718	0,033954	0,034373	0,034350	0,034397	0,033749
574,00	0,043131	0,043235	0,045450	0,047047	0,073695	0,076982	0,052639	0,057988	0,064041	0,066606	0,054031	0,052512	0,054292	0,047695	-0,000002	0,000054	-0,000027	-0,000063	0,034182	0,033804	0,034223	0,034326	0,035355	0,034710	0,033899	0,034360	0,034339	0,034401	0,033752
575,00	0,043070	0,043196	0,045424	0,047014	0,074029	0,077247	0,052741	0,058091	0,064110	0,066704	0,054005	0,052515	0,054240	0,047668	-0,000015	0,000030	-0,000027	-0,000055	0,034151	0,033778	0,034202	0,034313	0,035336	0,034690	0,033865	0,034347	0,034307	0,034405	0,033751
576,00	0,043055	0,043192	0,045436	0,047017	0,074380	0,077509	0,052847	0,058191	0,064181	0,066807	0,054008	0,052535	0,054209	0,047659	-0,000007	0,000013	-0,000031	-0,000053	0,034165	0,033787	0,034226	0,034297	0,035338	0,034673	0,033872	0,034330	0,034294	0,034411	0,033751
577,00	0,043042	0,043196	0,045431	0,046995	0,074744	0,077795	0,052956	0,058311	0,064252	0,066908	0,054022	0,052541	0,054185	0,047640	-0,000012	0,000001	-0,000042	-0,000061	0,034176	0,033811	0,034240	0,034313	0,035361	0,034683	0,033884	0,034307	0,034272	0,034407	0,033756
578,00	0,043042	0,043192	0,045410	0,047006	0,075112	0,078109	0,053092	0,058425	0,064366	0,067034	0,054055	0,052563	0,054191	0,047643	-0,000025	-0,000002	-0,000043	-0,000071	0,034203	0,033847	0,034247	0,034335	0,035376	0,034699	0,033914	0,034322	0,034303	0,034447	0,033788
579,00	0,043016	0,043172	0,045405	0,046982	0,075478	0,078436	0,053248	0,058556	0,064512	0,067174	0,054107	0,052604	0,054213	0,047661	-0,000038	-0,000005	-0,000021	-0,000056	0,034207	0,033849	0,034247	0,034375	0,035393	0,034721	0,033926	0,034369	0,034350	0,034498	0,033828
580,00	0,043016	0,043185	0,045423	0,046994	0,075847	0,078743	0,053397	0,058686	0,064650	0,067328	0,054156	0,052656	0,054238	0,047685	-0,000024	-0,000007	0,000002	-0,000046	0,034239	0,033891	0,034287	0,034403	0,035419	0,034736	0,033980	0,034385	0,034411	0,034567	0,033879
581,00	0,043016	0,043214	0,045461	0,047000	0,076225	0,079049	0,053537	0,058829	0,064780	0,067478	0,054192	0,052706	0,054249	0,047709	-0,000011	-0,000009	0,000000	-0,000039	0,034266	0,033924	0,034339	0,034427	0,035458	0,034770	0,034017	0,034409	0,034445	0,034595	0,033909
582,00	0,043039	0,043237	0,045481	0,047031	0,076589	0,079337	0,053653	0,058953	0,064890	0,067612	0,054229	0,052755	0,054252	0,047740	-0,000000	-0,000015	0,000010	-0,000009	0,034311	0,033978	0,034395	0,034442	0,035514	0,034773	0,034071	0,034430	0,034474	0,034645	0,033972
583,00	0,043063	0,043248	0,045502	0,047060	0,076956	0,079632	0,053785	0,059085	0,065003	0,067727	0,054266	0,052800	0,054237	0,047756	0,000012	-0,000026	0,000018	0,000003	0,034338	0,034003	0,034420	0,034451	0,035550	0,034786	0,034099	0,034501	0,034520	0,034644	0,033986
584,00	0,043107	0,043271	0,045529	0,047103	0,077319	0,079932	0,053925	0,059211	0,065116	0,067854	0,054328	0,052855	0,054227	0,047762	0,000043	-0,000019	0,000055	0,000020	0,034401	0,034055	0,034467	0,034486	0,035591	0,034797	0,034152	0,034538	0,034579	0,034652	0,034009
585,00	0,043117	0,043300	0,045551	0,047115	0,077688	0,080233	0,054066	0,059321	0,065234	0,067978	0,054372	0,052891	0,054227	0,047773	0,000075	-0,000018	0,000067	0,000032	0,034451	0,034092	0,034500	0,034514	0,035611	0,034819	0,034180	0,034550	0,034626	0,034653	0,034020
586,00	0,043106	0,043321	0,045539	0,047115	0,078031	0,080524	0,054175	0,059425	0,065352	0,068079	0,054385	0,052929	0,054244	0,047794	0,000071	-0,000002	0,000070	0,000076	0,034463	0,034133	0,034520	0,034540	0,035620	0,034846	0,034212	0,034545	0,034632	0,034685	0,034066
587,00	0,043086	0,043310	0,045525	0,047095	0,078366	0,080793	0,054272	0,059522	0,065448	0,068187	0,054390	0,052943	0,054215	0,047793	0,000068	-0,000017	0,000066	0,000076	0,034455	0,034136	0,034513	0,034540	0,035612	0,034868	0,034209	0,034550	0,034657	0,034685	0,034084
588,00	0,043080	0,043292	0,045519	0,047089	0,078683	0,081058	0,054363	0,059627	0,065552	0,068300	0,054390	0,052963	0,054160	0,047758	0,000065	-0,000023	0,000073	0,000042	0,034440	0,034144	0,034512	0,034547	0,035618	0,034887	0,034211	0,034585	0,034674	0,034661	0,034059
589,00	0,043087	0,043267	0,045525	0,047088	0,079005	0,081322	0,054483	0,059732	0,065628	0,068417	0,054388	0,052975	0,054081	0,047718	0,000062	-0,000037	0,000084	-0,000017	0,034466	0,034138	0,034512	0,034553	0,035613	0,034916	0,034200	0,034600	0,034709	0,034630	0,034029
590,00	0,043068	0,043234	0,045503	0,047087	0,079325	0,081594	0,054599	0,059839	0,065733	0,068511	0,054385	0,052984	0,054028	0,047694	0,000047	-0,000009	0,000085	-0,000041	0,034471	0,034142	0,034504	0,034581	0,035629	0,034951	0,034196	0,034628	0,034699	0,034617	0,034006
591,00	0,043036	0,043199	0,045480	0,047060	0,079625	0,081851	0,054732	0,059959	0,065812	0,068604	0,054373	0,052986	0,053991	0,047662	0,000031	0,000012	0,000069	-0,000060	0,034468	0,034159	0,034491	0,034589	0,035636	0,034977	0,034194	0,034630	0,034682	0,034608	0,033985
592,00	0,043018	0,043183	0,045470	0,047039	0,079902	0,082068	0,054822	0,060055	0,065919	0,068688	0,054371	0,053016	0,053958	0,047652	0,000057	0,000014	0,000051	-0,000064	0,034469	0,034158	0,034499	0,034576	0,035650	0,034976	0,034197	0,034629	0,034663	0,034619	0,033987
593,00	0,043057	0,043219	0,045522	0,047054	0,080156	0,082280	0,054903	0,060141	0,065994	0,068773	0,054365	0,053027	0,053934	0,047654	0,000124	-0,000015	0,000035	-0,000071	0,034524	0,034210	0,034574	0,034583	0,035682	0,034970	0,034253	0,034601	0,034653	0,034640	0,034008
594,00	0,043139	0,043308	0,045598	0,047132	0,080407	0,082503	0,054986	0,060214	0,066066	0,068827	0,054358	0,053043	0,053913	0,047654	0,000209	-0,000014	0,000037	-0,000071	0,034634	0,034289	0,034655	0,034607	0,035770	0,034989	0,034357	0,034616	0,034644	0,034666	0,034034
595,00	0,043184	0,043365	0,045655	0,047201	0,080673	0,082735	0,055075	0,060297	0,066139	0,068923	0,054374	0,053060	0,053905	0,047651	0,000262	-0,000013	0,000046	-0,000076	0,034708	0,034360	0,034723	0,034633	0,035850	0,035016	0,034435	0,034635	0,034641	0,034678	0,034040
596,00	0,043201	0,043393	0,045663	0,047233	0,080923	0,082952	0,055168	0,060392	0,066231	0,069020	0,054393	0,053093	0,053904	0,047645	0,000270	0,000003	0,000055	-0,000070	0,034744	0,034391	0,034728	0,034643	0,035892	0,035036	0,034482	0,034679	0,034660	0,034701	0,034051
597,00	0,043196	0,043388	0,045665	0,047251	0,081166	0,083146	0,055257	0,060495	0,066316	0,069119	0,054415	0,053098	0,053912	0,047683	0,000264	-0,000010	0,000030	-0,000053	0,034766	0,034405	0,034746	0,034658	0,035891	0,035057	0,034498	0,034683	0,034669	0,034729	0,034100
598,00	0,043232	0,043418	0,045701	0,047276	0,081369	0,083338	0,055362	0,060591	0,066392	0,069185	0,054435	0,053103	0,053923	0,047704	0,000280	0,000005	-0,000005	-0,000040	0,034821	0,034456	0,034787	0,034694	0,035933	0,035089	0,034537	0,034715	0,034684	0,034750	0,034132
599,00	0,043263	0,043440	0,045735	0,047308	0,081601	0,083529	0,055465	0,060696	0,066483	0,069243	0,054463	0,053125	0,053944	0,047733	0,000278	0,000014	-0,000038	-0,000020	0,034859	0,034492	0,034833	0,034735	0,035962	0,035143	0,034560	0,034738	0,034681	0,034788	0,034177
600,00	0,043282	0,043492	0,045750	0,047327	0,081827	0,083710	0,055570	0,060793	0,066591	0,069349	0,054513	0,053181	0,053983	0,047763	0,000270	0,000035	-0,000050	0,000007	0,034883	0,034523	0,034872	0,034773	0,035998	0,035185	0,034589	0,034782	0,034724	0,034840	0,034234
601,00	0,043299	0,043523	0,045759	0,047336	0,082097	0,083921	0,055696	0,060926	0,066714	0,069450	0,054569	0,053228	0,054035	0,047802	0,000256	0,000041	-0,000051	0,000039	0,034904	0,034553	0,034904	0,034834	0,036013	0,035235	0,034616	0,034808	0,034773	0,034898	0,034309
602,00	0,043340	0,043517	0,045793	0,047366	0,082321	0,084121	0,055829	0,061063	0,066832	0,069586	0,054630	0,053285	0,054059	0,047829	0,000256	0,000061	-0,000034	0,000050	0,034942	0,034594	0,034940	0,034906	0,036060	0,035278	0,034653	0,034876	0,034860	0,034924	0,034371
603,00	0,043380	0,043498	0,045832	0,047392	0,082531	0,084305	0,055935	0,061193	0,066924	0,069660	0,054681	0,053323	0,054046	0,047853	0,000263	0,000054	-0,000033	0,000065	0,034996	0,034639	0,034974	0,034962	0,036101	0,035313	0,034677	0,034912	0,034930	0,034929	0,034396
604,00	0,043395	0,043486	0,045859	0,047405	0,082678	0,084409	0,055999	0,061278	0,066994	0,069747	0,054717	0,053360	0,054013	0,047869	0,000250	0,000058	-0,000021	0,000058	0,035028	0,034667	0,034991	0,034997	0,036134	0,035322	0,034729	0,034953	0,034979	0,034939	0,034412
605,00	0,043408	0,043514	0,045874	0,047394	0,082822	0,084511	0,056069	0,061332	0,067038	0,069781	0,054717	0,053351	0,054006	0,047884	0,000238	0,000051	-0,000047	0,000046	0,035061	0,034698	0,035017	0,035012	0,036160	0,035315	0,034760	0,034936	0,035003	0,034961	0,034435
606,00	0,043418	0,043542	0,045888	0,047385	0,082947	0,084588	0,056124	0,061385	0,067097	0,069843	0,054728	0,053378	0,053999	0,047863	0,000227	0,000049	-0,000037	0,000006	0,035082	0,034721	0,035044	0,035021	0,036172	0,035317	0,034804	0,034946	0,035023	0,034967	0,034459
607,00	0,043437	0,043550	0,045898	0,047404	0,083089	0,084689	0,056192	0,061431	0,067129	0,069855	0,054713	0,053365	0,053998	0,047857	0,000221	0,000044	-0,000039	-0,000007	0,035121	0,034743	0,035081	0,035028	0,036188	0,035338	0,034826	0,034948	0,035035	0,034991	0,034475
608,00	0,043420	0,043563	0,045890	0,047426	0,083193	0,084752	0,056228	0,061459	0,067147	0,069855	0,054720	0,053369	0,053990	0,047843	0,000232	0,000026	-0,000036	-0,000016	0,035148	0,034753	0,035102	0,035024	0,036201	0,035340	0,034855	0,034950	0,035020	0,035004	0,034507
609,00	0,043431	0,043566	0,045896	0,047437	0,083307	0,084828	0,056286	0,061487	0,067139	0,069855	0,054690	0,053343	0,053984	0,047842	0,000242	0,000032	-0,000033	-0,000026	0,035161	0,034767	0,035115	0,035041	0,036212	0,035342	0,034867	0,034954	0,034997	0,035022	0,034535
610,00	0,043423	0,043563	0,045878	0,047403	0,083390	0,084875	0,056311	0,061503	0,067149	0,069883	0,054687	0,053329	0,053959	0,047810	0,000250	0,000031	-0,000018	-0,000044	0,035172	0,034777	0,035117	0,035049	0,036211	0,035334	0,034857	0,034964	0,035009	0,035023	0,034567
611,00	0,043405	0,043559	0,045874	0,047363	0,083496	0,084937	0,056332	0,061527	0,067143	0,069912	0,054658	0,053303	0,053916	0,047778	0,000252	0,000047	0,000000	-0,000061	0,035176	0,034785	0,035120	0,035064	0,036213	0,035346	0,034849	0,034978	0,035010	0,035029	0,034544
612,00	0,043362	0,043528	0,045827	0,047324	0,083567	0,084964	0,056335	0,061524	0,067135	0,069918	0,054640	0,053274	0,053891	0,047755	0,000231	0,000046	0,000009	-0,000047	0,035176	0,034774	0,035113	0,035063	0,036195	0,035340	0,034843	0,034971	0,035027	0,035055	0,034545
613,00	0,043327	0,043515	0,045801	0,047319	0,083611	0,084981	0,056341	0,061514	0,067105	0,069894	0,054589	0,053227	0,053846	0,047713	0,000231	0,000051	-0,000003	-0,000045	0,035170	0,034765	0,035121	0,035055	0,036203	0,035360	0,034850	0,034963	0,034988	0,035039	0,034527
614,00	0,043315	0,043494	0,045769	0,047295	0,083618	0,084951	0,056312	0,061484	0,067096	0,069879	0,054567	0,053215	0,053820	0,047673	0,000220	0,000034	0,000005	-0,000031	0,035161	0,034761	0,035128	0,035029	0,036191	0,035351	0,034858	0,034975	0,034994	0,035022	0,034533
615,00	0,043294	0,043469	0,045747	0,047266	0,083625	0,084907	0,056272	0,061461	0,067053	0,069815	0,054522	0,053163	0,053764	0,047605	0,000221	0,000036	0,000006	-0,000043	0,035161	0,034770	0,035129	0,035013	0,036194	0,035348	0,034862	0,034981	0,034974	0,034984	0,034525
616,00	0,043274	0,043447	0,045737	0,047227	0,083605	0,084841	0,056212	0,061405	0,067001	0,069744	0,054485	0,053118	0,053726	0,047558	0,000221	0,000022	0,000006	-0,000029	0,035170	0,034769	0,035138	0,035007	0,036199	0,035313	0,034874	0,034967	0,034973	0,034959	0,034519
617,00	0,043208	0,043415	0,045701	0,047190	0,083551	0,084755	0,056147	0,061330	0,066915	0,069652	0,054418	0,053035	0,053667	0,047502	0,000213	0,000009	0,000014	-0,000028	0,035173	0,034746	0,035114	0,034989	0,036190	0,035291	0,034859	0,034962	0,034965	0,034932	0,034528
618,00	0,043167	0,043383	0,045653	0,047142	0,083440	0,084651	0,056056	0,061225	0,066821	0,069559	0,054361	0,052971	0,053621	0,047449	0,000213	-0,000005	0,000030	0,000002	0,035169	0,034735	0,035103	0,034963	0,036186	0,035275	0,034855	0,034946	0,034956	0,034905	0,034517
619,00	0,043082	0,043314	0,045574	0,047065	0,083293	0,084505	0,055941	0,061107	0,066714	0,069453	0,054300	0,052897	0,053560	0,047389	0,000186	-0,000010	0,000041	0,000030	0,035118	0,034701	0,035052	0,034927	0,036152	0,035256	0,034824	0,034955	0,034967	0,034881	0,034530
620,00	0,043030	0,043262	0,045502	0,046992	0,083124	0,084302	0,055806	0,060965	0,066578	0,069300	0,054205	0,052800	0,053478	0,047313	0,000180	0,000003	0,000027	0,000073	0,035099	0,034702	0,035037	0,034901	0,036130	0,035260	0,034827	0,034915	0,034951	0,034852	0,034501
621,00	0,042959	0,043199	0,045436	0,046923	0,082907	0,084065	0,055661	0,060793	0,066429	0,069125	0,054110	0,052676	0,053376	0,047222	0,000175	-0,000008	0,000014	0,000077	0,035059	0,034681	0,035026	0,034877	0,036104	0,035261	0,034794	0,034895	0,034954	0,034849	0,034480
622,00	0,042947	0,043181	0,045379	0,046896	0,082655	0,083785	0,055499	0,060602	0,066244	0,068947	0,054006	0,052557	0,053248	0,047111	0,000211	-0,000017	0,000009	0,000070	0,035077	0,034708	0,035041	0,034862	0,036108	0,035255	0,034796	0,034867	0,034964	0,034851	0,034447
623,00	0,042923	0,043129	0,045328	0,046855	0,082338	0,083469	0,055335	0,060396	0,066039	0,068722	0,053910	0,052415	0,053156	0,047010	0,000264	-0,000037	0,000003	0,000058	0,035066	0,034723	0,035050	0,034859	0,036111	0,035247	0,034788	0,034874	0,034962	0,034871	0,034459
624,00	0,042910	0,043092	0,045267	0,046819	0,081981	0,083111	0,055149	0,060170	0,065811	0,068492	0,053798	0,052276	0,053047	0,046903	0,000311	-0,000042	0,000010	0,000040	0,035089	0,034739	0,035059	0,034863	0,036134	0,035254	0,034817	0,034874	0,034971	0,034867	0,034451
625,00	0,042848	0,043008	0,045204	0,046733	0,081561	0,082726	0,054942	0,059939	0,065573	0,068206	0,053674	0,052129	0,052951	0,046806	0,000308	-0,000042	0,000012	0,000021	0,035076	0,034717	0,035043	0,034874	0,036112	0,035239	0,034813	0,034868	0,034955	0,034871	0,034440
626,00	0,042793	0,042951	0,045150	0,046662	0,081100	0,082287	0,054701	0,059672	0,065307	0,067909	0,053546	0,051993	0,052816	0,046693	0,000302	-0,000045	0,000020	-0,000012	0,035076	0,034695	0,035039	0,034866	0,036104	0,035240	0,034810	0,034865	0,034966	0,034872	0,034410
627,00	0,042744	0,042911	0,045098	0,046584	0,080569	0,081787	0,054434	0,059406	0,065006	0,067561	0,053387	0,051833	0,052662	0,046560	0,000307	-0,000040	-0,000004	-0,000059	0,035083	0,034688	0,035048	0,034855	0,036087	0,035236	0,034796	0,034849	0,034964	0,034861	0,034384
628,00	0,042721	0,042893	0,045039	0,046524	0,079998	0,081249	0,054176	0,059104	0,064656	0,067186	0,053222	0,051640	0,052532	0,046433	0,000332	-0,000040	-0,000030	-0,000084	0,035095	0,034708	0,035071	0,034863	0,036097	0,035283	0,034817	0,034844	0,034947	0,034866	0,034388
629,00	0,042698	0,042854	0,044970	0,046455	0,079354	0,080662	0,053909	0,058776	0,064316	0,066841	0,053070	0,051451	0,052393	0,046307	0,000338	-0,000041	-0,000020	-0,000094	0,035115	0,034726	0,035071	0,034880	0,036110	0,035288	0,034835	0,034843	0,034942	0,034846	0,034381
630,00	0,042643	0,042777	0,044893	0,046382	0,078658	0,080028	0,053622	0,058428	0,063958	0,066469	0,052904	0,051247	0,052290	0,046202	0,000322	-0,000053	-0,000021	-0,000064	0,035116	0,034732	0,035055	0,034888	0,036107	0,035293	0,034838	0,034861	0,034935	0,034870	0,034406
631,00	0,042595	0,042725	0,044827	0,046327	0,077915	0,079348	0,053313	0,058075	0,063598	0,066086	0,052735	0,051058	0,052161	0,046064	0,000321	-0,000042	0,000001	-0,000053	0,035128	0,034753	0,035057	0,034890	0,036116	0,035305	0,034870	0,034880	0,034962	0,034851	0,034408
632,00	0,042536	0,042672	0,044741	0,046264	0,077152	0,078640	0,052992	0,057728	0,063179	0,065639	0,052526	0,050832	0,052038	0,045929	0,000319	-0,000021	-0,000010	-0,000035	0,035133	0,034769	0,035082	0,034902	0,036122	0,035335	0,034880	0,034893	0,034973	0,034851	0,034416
633,00	0,042473	0,042624	0,044667	0,046186	0,076360	0,077895	0,052674	0,057332	0,062748	0,065196	0,052340	0,050629	0,051901	0,045779	0,000308	0,000004	0,000013	-0,000028	0,035139	0,034781	0,035100	0,034941	0,036130	0,035367	0,034902	0,034914	0,034992	0,034833	0,034426
634,00	0,042403	0,042550	0,044574	0,046085	0,075508	0,077092	0,052324	0,056935	0,062282	0,064705	0,052120	0,050381	0,051746	0,045633	0,000298	0,000010	-0,000001	-0,000021	0,035156	0,034787	0,035130	0,034956	0,036146	0,035383	0,034885	0,034920	0,034986	0,034847	0,034432
635,00	0,042320	0,042492	0,044502	0,045988	0,074612	0,076279	0,051957	0,056530	0,061823	0,064208	0,051929	0,050152	0,051614	0,045479	0,000286	0,000016	0,000009	-0,000021	0,035172	0,034802	0,035134	0,034980	0,036151	0,035405	0,034894	0,034926	0,034996	0,034857	0,034449
636,00	0,042253	0,042441	0,044414	0,045899	0,073676	0,075452	0,051559	0,056128	0,061334	0,063699	0,051701	0,049884	0,051468	0,045338	0,000294	0,000000	0,000002	-0,000029	0,035173	0,034823	0,035161	0,034969	0,036167	0,035382	0,034915	0,034925	0,034971	0,034874	0,034449
637,00	0,042177	0,042392	0,044335	0,045812	0,072725	0,074580	0,051122	0,055672	0,060844	0,063194	0,051484	0,049646	0,051339	0,045210	0,000300	-0,000038	0,000043	-0,000020	0,035175	0,034829	0,035163	0,034964	0,036173	0,035347	0,034948	0,034940	0,034983	0,034903	0,034471
638,00	0,042090	0,042321	0,044242	0,045719	0,071771	0,073706	0,050702	0,055206	0,060348	0,062693	0,051243	0,049400	0,051190	0,045097	0,000293	-0,000047	0,000052	-0,000007	0,035170	0,034833	0,035182	0,034970	0,036178	0,035351	0,034964	0,034955	0,035012	0,034944	0,034497
639,00	0,041995	0,042242	0,044158	0,045613	0,070839	0,072834	0,050298	0,054739	0,059870	0,062201	0,051049	0,049162	0,051028	0,044971	0,000278	-0,000043	0,000064	0,000023	0,035174	0,034829	0,035180	0,034998	0,036177	0,035387	0,034954	0,034991	0,035055	0,034983	0,034535
640,00	0,041911	0,042166	0,044075	0,045524	0,069952	0,072025	0,049926	0,054321	0,059407	0,061723	0,050859	0,048927	0,050869	0,044827	0,000257	-0,000003	0,000067	0,000018	0,035167	0,034841	0,035189	0,035025	0,036182	0,035416	0,034960	0,035011	0,035093	0,035014	0,034542
641,00	0,041880	0,042129	0,044018	0,045463	0,069134	0,071262	0,049561	0,053934	0,058973	0,061278	0,050668	0,048697	0,050708	0,044692	0,000274	-0,000004	0,000066	0,000019	0,035198	0,034869	0,035208	0,035034	0,036209	0,035419	0,034979	0,035022	0,035114	0,035041	0,034563
642,00	0,041828	0,042091	0,043951	0,045396	0,068379	0,070554	0,049223	0,053571	0,058562	0,060840	0,050466	0,048479	0,050579	0,044563	0,000274	0,000006	0,000065	0,000013	0,035226	0,034878	0,035208	0,035058	0,036239	0,035429	0,035006	0,035015	0,035142	0,035044	0,034585
643,00	0,041786	0,042053	0,043886	0,045308	0,067643	0,069869	0,048880	0,053203	0,058181	0,060424	0,050281	0,048270	0,050450	0,044443	0,000290	0,000000	0,000040	0,000019	0,035238	0,034883	0,035200	0,035080	0,036226	0,035434	0,035012	0,035009	0,035139	0,035034	0,034618
644,00	0,041725	0,041989	0,043803	0,045211	0,066906	0,069196	0,048528	0,052831	0,057789	0,059997	0,050097	0,048058	0,050328	0,044330	0,000275	0,000010	0,000020	0,000027	0,035219	0,034867	0,035192	0,035087	0,036209	0,035445	0,035005	0,035022	0,035138	0,035007	0,034631
645,00	0,041678	0,041934	0,043726	0,045133	0,066188	0,068524	0,048165	0,052467	0,057422	0,059605	0,049909	0,047860	0,050216	0,044217	0,000284	-0,000001	0,000010	0,000016	0,035211	0,034876	0,035213	0,035054	0,036191	0,035422	0,034999	0,035009	0,035133	0,034985	0,034630
646,00	0,041631	0,041882	0,043656	0,045059	0,065541	0,067915	0,047867	0,052149	0,057072	0,059256	0,049723	0,047655	0,050100	0,044115	0,000282	-0,000004	-0,000002	0,000004	0,035215	0,034876	0,035215	0,035045	0,036186	0,035415	0,034979	0,035005	0,035126	0,034958	0,034624
647,00	0,041577	0,041831	0,043588	0,044983	0,064931	0,067334	0,047594	0,051844	0,056745	0,058925	0,049569	0,047476	0,049982	0,044007	0,000296	-0,000015	-0,000000	-0,000016	0,035220	0,034871	0,035205	0,035030	0,036185	0,035380	0,034970	0,034990	0,035106	0,034942	0,034619
648,00	0,041522	0,041790	0,043539	0,044912	0,064347	0,066776	0,047342	0,051562	0,056465	0,058605	0,049439	0,047308	0,049888	0,043923	0,000312	-0,000006	-0,000003	-0,000022	0,035212	0,034864	0,035198	0,035041	0,036174	0,035374	0,034971	0,034999	0,035083	0,034918	0,034612
649,00	0,041475	0,041740	0,043484	0,044864	0,063768	0,066231	0,047084	0,051280	0,056201	0,058313	0,049333	0,047179	0,049822	0,043855	0,000325	-0,000019	0,000008	-0,000032	0,035200	0,034852	0,035203	0,035022	0,036187	0,035356	0,034976	0,035009	0,035093	0,034902	0,034610
650,00	0,041424	0,041684	0,043435	0,044801	0,063226	0,065720	0,046870	0,051053	0,055984	0,058037	0,049234	0,047060	0,049778	0,043784	0,000326	0,000001	0,000008	-0,000050	0,035178	0,034834	0,035194	0,035032	0,036180	0,035354	0,034958	0,035000	0,035085	0,034884	0,034592
651,00	0,041399	0,041631	0,043385	0,044738	0,062685	0,065218	0,046663	0,050837	0,055771	0,057803	0,049150	0,046970	0,049737	0,043728	0,000298	0,000001	0,000016	-0,000048	0,035158	0,034822	0,035177	0,035024	0,036150	0,035350	0,034944	0,035002	0,035077	0,034893	0,034587
652,00	0,041388	0,041613	0,043356	0,044701	0,062153	0,064715	0,046493	0,050643	0,055577	0,057569	0,049071	0,046876	0,049716	0,043679	0,000274	0,000017	0,000016	-0,000042	0,035159	0,034831	0,035170	0,035035	0,036138	0,035366	0,034941	0,034995	0,035053	0,034910	0,034566
653,00	0,041378	0,041586	0,043326	0,044676	0,061597	0,064213	0,046330	0,050455	0,055419	0,057382	0,049032	0,046829	0,049705	0,043663	0,000259	0,000009	0,000023	-0,000029	0,035167	0,034825	0,035163	0,035030	0,036120	0,035378	0,034942	0,035012	0,035039	0,034934	0,034560
654,00	0,041352	0,041572	0,043301	0,044658	0,061062	0,063745	0,046223	0,050304	0,055280	0,057217	0,049025	0,046793	0,049689	0,043640	0,000268	0,000032	0,000023	-0,000038	0,035175	0,034810	0,035158	0,035049	0,036141	0,035402	0,034925	0,035018	0,035031	0,034945	0,034555
655,00	0,041330	0,041569	0,043298	0,044626	0,060496	0,063243	0,046100	0,050155	0,055174	0,057065	0,049052	0,046787	0,049712	0,043625	0,000279	0,000033	0,000023	-0,000039	0,035180	0,034795	0,035162	0,035046	0,036142	0,035403	0,034917	0,035034	0,035036	0,034962	0,034570
656,00	0,041354	0,041617	0,043334	0,044654	0,059953	0,062757	0,046016	0,050039	0,055097	0,056930	0,049080	0,046776	0,049751	0,043642	0,000301	0,000050	0,000028	-0,000042	0,035216	0,034833	0,035195	0,035077	0,036170	0,035423	0,034952	0,035049	0,035073	0,034992	0,034601
657,00	0,041387	0,041656	0,043364	0,044664	0,059406	0,062256	0,045925	0,049925	0,055036	0,056811	0,049128	0,046803	0,049820	0,043673	0,000298	0,000023	0,000052	-0,000038	0,035230	0,034865	0,035216	0,035072	0,036176	0,035431	0,034983	0,035065	0,035111	0,035037	0,034623
658,00	0,041424	0,041692	0,043406	0,044707	0,058910	0,061810	0,045856	0,049846	0,054999	0,056735	0,049182	0,046855	0,049884	0,043715	0,000316	0,000021	0,000062	-0,000054	0,035242	0,034896	0,035231	0,035098	0,036186	0,035442	0,035014	0,035087	0,035149	0,035065	0,034633
659,00	0,041465	0,041742	0,043470	0,044731	0,058466	0,061406	0,045794	0,049785	0,054974	0,056681	0,049254	0,046931	0,049973	0,043735	0,000327	0,000018	0,000071	-0,000063	0,035256	0,034906	0,035260	0,035108	0,036211	0,035472	0,035023	0,035115	0,035181	0,035077	0,034651
660,00	0,041512	0,041828	0,043546	0,044795	0,058077	0,061081	0,045762	0,049761	0,054985	0,056633	0,049319	0,047003	0,050080	0,043780	0,000345	0,000065	0,000058	-0,000063	0,035298	0,034929	0,035290	0,035155	0,036250	0,035517	0,035047	0,035161	0,035217	0,035086	0,034666
661,00	0,041529	0,041889	0,043593	0,044821	0,057733	0,060791	0,045738	0,049739	0,054996	0,056579	0,049386	0,047068	0,050202	0,043843	0,000324	0,000095	0,000035	-0,000042	0,035320	0,034926	0,035304	0,035197	0,036263	0,035568	0,035046	0,035159	0,035215	0,035113	0,034697
662,00	0,041545	0,041944	0,043629	0,044852	0,057401	0,060504	0,045706	0,049707	0,055039	0,056565	0,049464	0,047143	0,050336	0,043924	0,000298	0,000086	0,000013	-0,000019	0,035323	0,034924	0,035280	0,035199	0,036252	0,035568	0,035045	0,035141	0,035221	0,035147	0,034714
663,00	0,041598	0,041979	0,043675	0,044883	0,057115	0,060231	0,045665	0,049681	0,055099	0,056590	0,049558	0,047238	0,050475	0,044001	0,000286	0,000037	0,000010	-0,000019	0,035322	0,034921	0,035275	0,035184	0,036242	0,035551	0,035057	0,035125	0,035232	0,035167	0,034750
664,00	0,041678	0,042037	0,043729	0,044929	0,056910	0,060050	0,045661	0,049704	0,055203	0,056640	0,049667	0,047335	0,050631	0,044061	0,000276	0,000038	0,000013	-0,000008	0,035327	0,034935	0,035291	0,035182	0,036251	0,035579	0,035046	0,035156	0,035269	0,035174	0,034789
665,00	0,041735	0,042105	0,043760	0,044974	0,056770	0,059915	0,045666	0,049731	0,055310	0,056705	0,049790	0,047445	0,050790	0,044111	0,000245	0,000041	0,000014	-0,000007	0,035331	0,034943	0,035314	0,035208	0,036266	0,035610	0,035045	0,035184	0,035281	0,035185	0,034819
666,00	0,041784	0,042176	0,043815	0,045009	0,056691	0,059832	0,045692	0,049769	0,055431	0,056790	0,049920	0,047562	0,050931	0,044134	0,000244	0,000068	0,000006	0,000002	0,035350	0,034957	0,035331	0,035237	0,036276	0,035649	0,035043	0,035202	0,035328	0,035196	0,034822
667,00	0,041828	0,042245	0,043868	0,045038	0,056640	0,059750	0,045704	0,049786	0,055510	0,056868	0,050030	0,047677	0,051052	0,044182	0,000264	0,000043	0,000018	-0,000005	0,035372	0,034969	0,035350	0,035247	0,036274	0,035645	0,035058	0,035193	0,035347	0,035233	0,034821
668,00	0,041869	0,042307	0,043913	0,045050	0,056609	0,059714	0,045701	0,049809	0,055626	0,056935	0,050118	0,047782	0,051152	0,044225	0,000286	0,000027	0,000029	-0,000002	0,035373	0,034975	0,035365	0,035241	0,036267	0,035659	0,035065	0,035188	0,035389	0,035255	0,034822
669,00	0,041915	0,042369	0,043955	0,045085	0,056606	0,059695	0,045709	0,049828	0,055715	0,056982	0,050181	0,047860	0,051246	0,044259	0,000294	0,000026	0,000030	-0,000012	0,035380	0,034970	0,035375	0,035254	0,036274	0,035674	0,035064	0,035168	0,035383	0,035273	0,034831
670,00	0,041960	0,042416	0,043990	0,045109	0,056590	0,059658	0,045698	0,049819	0,055796	0,057018	0,050229	0,047930	0,051307	0,044290	0,000320	0,000010	0,000012	-0,000011	0,035377	0,034975	0,035379	0,035244	0,036276	0,035691	0,035069	0,035155	0,035374	0,035273	0,034827
671,00	0,041994	0,042428	0,044015	0,045118	0,056582	0,059608	0,045701	0,049809	0,055822	0,057018	0,050281	0,047972	0,051378	0,044306	0,000338	0,000012	-0,000014	-0,000006	0,035379	0,034970	0,035356	0,035251	0,036264	0,035699	0,035062	0,035136	0,035349	0,035296	0,034829
672,00	0,041985	0,042444	0,044008	0,045112	0,056537	0,059539	0,045679	0,049797	0,055838	0,057013	0,050303	0,048004	0,051430	0,044319	0,000317	-0,000011	-0,000036	0,000019	0,035354	0,034982	0,035343	0,035224	0,036237	0,035700	0,035055	0,035142	0,035324	0,035326	0,034826
673,00	0,041964	0,042441	0,043998	0,045094	0,056494	0,059485	0,045676	0,049797	0,055874	0,057012	0,050348	0,048040	0,051475	0,044317	0,000271	0,000001	-0,000028	0,000028	0,035351	0,034986	0,035324	0,035229	0,036240	0,035707	0,035045	0,035169	0,035338	0,035340	0,034811
674,00	0,041948	0,042442	0,043992	0,045079	0,056434	0,059411	0,045670	0,049750	0,055882	0,056984	0,050343	0,048056	0,051476	0,044313	0,000237	0,000013	-0,000021	0,000030	0,035336	0,034990	0,035332	0,035224	0,036249	0,035711	0,035039	0,035187	0,035340	0,035332	0,034810
675,00	0,041924	0,042427	0,043970	0,045043	0,056346	0,059300	0,045638	0,049679	0,055833	0,056896	0,050330	0,048037	0,051455	0,044302	0,000223	0,000032	-0,000027	0,000024	0,035335	0,034983	0,035303	0,035261	0,036250	0,035720	0,035030	0,035171	0,035330	0,035336	0,034835
676,00	0,041898	0,042407	0,043944	0,045011	0,056212	0,059148	0,045551	0,049578	0,055715	0,056763	0,050271	0,047984	0,051415	0,044271	0,000199	0,000035	-0,000062	0,000027	0,035332	0,034980	0,035295	0,035256	0,036230	0,035705	0,035031	0,035135	0,035303	0,035322	0,034862
677,00	0,041852	0,042381	0,043895	0,044957	0,056038	0,058963	0,045456	0,049485	0,055583	0,056633	0,050221	0,047923	0,051343	0,044197	0,000179	0,000028	-0,000076	-0,000009	0,035345	0,034973	0,035296	0,035263	0,036210	0,035701	0,035026	0,035134	0,035300	0,035294	0,034838
678,00	0,041817	0,042350	0,043855	0,044917	0,055834	0,058753	0,045327	0,049347	0,055445	0,056473	0,050134	0,047854	0,051271	0,044122	0,000166	0,000017	-0,000081	-0,000039	0,035364	0,034965	0,035320	0,035234	0,036224	0,035681	0,035038	0,035134	0,035303	0,035252	0,034801
679,00	0,041773	0,042331	0,043826	0,044883	0,055576	0,058499	0,045213	0,049178	0,055305	0,056305	0,050038	0,047782	0,051177	0,044034	0,000193	-0,000005	-0,000058	-0,000066	0,035382	0,034970	0,035324	0,035221	0,036249	0,035668	0,035063	0,035150	0,035319	0,035237	0,034788
680,00	0,041722	0,042293	0,043786	0,044846	0,055276	0,058194	0,045039	0,048969	0,055119	0,056094	0,049920	0,047683	0,051060	0,043936	0,000210	-0,000028	-0,000055	-0,000060	0,035391	0,034996	0,035311	0,035206	0,036254	0,035638	0,035081	0,035146	0,035325	0,035233	0,034784
681,00	0,041655	0,042222	0,043727	0,044777	0,054931	0,057853	0,044890	0,048768	0,054910	0,055866	0,049816	0,047571	0,050921	0,043847	0,000227	-0,000027	-0,000024	-0,000067	0,035400	0,035019	0,035311	0,035218	0,036243	0,035621	0,035094	0,035168	0,035353	0,035234	0,034785
682,00	0,041571	0,042118	0,043604	0,044666	0,054551	0,057495	0,044695	0,048566	0,054638	0,055601	0,049667	0,047405	0,050766	0,043733	0,000198	-0,000012	0,000008	-0,000075	0,035375	0,035013	0,035277	0,035239	0,036196	0,035620	0,035060	0,035180	0,035366	0,035231	0,034786
683,00	0,041495	0,042008	0,043474	0,044566	0,054094	0,057088	0,044522	0,048335	0,054300	0,055265	0,049469	0,047192	0,050605	0,043649	0,000182	-0,000015	0,000014	-0,000088	0,035363	0,034995	0,035255	0,035218	0,036188	0,035613	0,035045	0,035164	0,035352	0,035251	0,034793
684,00	0,041418	0,041915	0,043364	0,044481	0,053622	0,056683	0,044316	0,048088	0,053928	0,054929	0,049239	0,046973	0,050406	0,043551	0,000190	-0,000029	-0,000003	-0,000054	0,035354	0,034991	0,035246	0,035196	0,036188	0,035610	0,035049	0,035152	0,035318	0,035269	0,034793
685,00	0,041335	0,041817	0,043259	0,044386	0,053111	0,056217	0,044108	0,047833	0,053563	0,054574	0,049029	0,046763	0,050185	0,043465	0,000176	-0,000053	-0,000005	-0,000040	0,035353	0,034988	0,035258	0,035179	0,036201	0,035596	0,035076	0,035144	0,035306	0,035294	0,034796
686,00	0,041194	0,041668	0,043119	0,044241	0,052583	0,055747	0,043865	0,047580	0,053209	0,054244	0,048822	0,046565	0,049934	0,043345	0,000126	-0,000048	0,000021	-0,000036	0,035325	0,034926	0,035210	0,035204	0,036158	0,035574	0,035057	0,035172	0,035307	0,035278	0,034797
687,00	0,041031	0,041475	0,042942	0,044073	0,052013	0,055232	0,043618	0,047320	0,052846	0,053880	0,048607	0,046340	0,049689	0,043227	0,000039	-0,000056	0,000043	-0,000042	0,035279	0,034868	0,035154	0,035210	0,036098	0,035556	0,034982	0,035179	0,035324	0,035270	0,034803
688,00	0,040885	0,041301	0,042768	0,043930	0,051440	0,054733	0,043374	0,047051	0,052436	0,053510	0,048370	0,046096	0,049436	0,043103	-0,000008	-0,000048	0,000044	-0,000035	0,035254	0,034824	0,035091	0,035216	0,036052	0,035553	0,034929	0,035170	0,035318	0,035267	0,034823
689,00	0,040800	0,041186	0,042637	0,043825	0,050872	0,054226	0,043142	0,046778	0,052023	0,053111	0,048132	0,045865	0,049209	0,043023	-0,000015	-0,000042	0,000040	0,000010	0,035258	0,034844	0,035097	0,035205	0,036054	0,035568	0,034936	0,035167	0,035325	0,035300	0,034877
690,00	0,040726	0,041083	0,042523	0,043732	0,050307	0,053738	0,042901	0,046516	0,051605	0,052743	0,047903	0,045631	0,048974	0,042907	-0,000008	-0,000048	0,000036	0,000022	0,035265	0,034859	0,035096	0,035199	0,036081	0,035595	0,034974	0,035172	0,035321	0,035315	0,034915
691,00	0,040657	0,041004	0,042428	0,043641	0,049779	0,053289	0,042691	0,046262	0,051228	0,052387	0,047678	0,045408	0,048749	0,042810	-0,000002	-0,000054	0,000037	0,000047	0,035282	0,034879	0,035134	0,035210	0,036111	0,035610	0,035011	0,035196	0,035319	0,035338	0,034940
692,00	0,040603	0,040933	0,042351	0,043576	0,049281	0,052883	0,042507	0,046047	0,050882	0,052071	0,047471	0,045179	0,048527	0,042694	0,000016	-0,000057	0,000032	0,000043	0,035305	0,034919	0,035178	0,035231	0,036150	0,035651	0,035052	0,035206	0,035300	0,035353	0,034951
693,00	0,040539	0,040868	0,042288	0,043512	0,048809	0,052487	0,042341	0,045821	0,050575	0,051778	0,047302	0,044993	0,048316	0,042602	0,000018	-0,000056	0,000043	0,000032	0,035339	0,034959	0,035212	0,035245	0,036183	0,035661	0,035081	0,035237	0,035318	0,035356	0,034965
694,00	0,040480	0,040791	0,042225	0,043466	0,048363	0,052117	0,042202	0,045639	0,050281	0,051502	0,047136	0,044823	0,048132	0,042510	0,000029	-0,000042	0,000040	0,000021	0,035369	0,035008	0,035231	0,035281	0,036217	0,035692	0,035105	0,035262	0,035330	0,035357	0,034975
695,00	0,040424	0,040726	0,042184	0,043420	0,047967	0,051772	0,042075	0,045464	0,050011	0,051251	0,047000	0,044690	0,047959	0,042432	0,000033	-0,000032	0,000047	0,000007	0,035427	0,035060	0,035270	0,035326	0,036266	0,035723	0,035135	0,035297	0,035384	0,035359	0,034994
696,00	0,040406	0,040691	0,042119	0,043395	0,047618	0,051490	0,041973	0,045330	0,049774	0,051023	0,046861	0,044554	0,047821	0,042382	0,000045	-0,000012	0,000033	0,000021	0,035476	0,035111	0,035311	0,035393	0,036295	0,035779	0,035169	0,035310	0,035416	0,035384	0,035034
697,00	0,040403	0,040663	0,042076	0,043373	0,047299	0,051225	0,041860	0,045172	0,049565	0,050824	0,046758	0,044429	0,047690	0,042321	0,000049	-0,000021	0,000020	0,000004	0,035538	0,035165	0,035383	0,035435	0,036342	0,035838	0,035225	0,035339	0,035479	0,035417	0,035063
698,00	0,040402	0,040649	0,042023	0,043370	0,047029	0,051005	0,041763	0,045049	0,049397	0,050643	0,046660	0,044326	0,047584	0,042254	0,000042	-0,000017	0,000032	-0,000015	0,035580	0,035209	0,035424	0,035487	0,036396	0,035887	0,035274	0,035379	0,035521	0,035450	0,035092
699,00	0,040399	0,040654	0,042016	0,043368	0,046798	0,050807	0,041704	0,044937	0,049235	0,050477	0,046580	0,044245	0,047498	0,042198	0,000047	-0,000020	0,000036	-0,000035	0,035643	0,035266	0,035495	0,035534	0,036459	0,035952	0,035343	0,035421	0,035585	0,035518	0,035132
700,00	0,040393	0,040649	0,042012	0,043361	0,046594	0,050647	0,041677	0,044876	0,049076	0,050320	0,046507	0,044181	0,047425	0,042167	0,000044	0,000015	0,000024	-0,000057	0,035693	0,035306	0,035549	0,035603	0,036514	0,036026	0,035393	0,035455	0,035625	0,035581	0,035190
701,00	0,040383	0,040658	0,042017	0,043343	0,046424	0,050496	0,041648	0,044789	0,048955	0,050216	0,046458	0,044126	0,047376	0,042163	0,000038	0,000026	0,000008	-0,000067	0,035740	0,035347	0,035597	0,035684	0,036543	0,036104	0,035425	0,035507	0,035688	0,035650	0,035249
702,00	0,040387	0,040659	0,042012	0,043350	0,046255	0,050353	0,041610	0,044722	0,048871	0,050120	0,046434	0,044100	0,047321	0,042167	0,000032	0,000032	0,000012	-0,000077	0,035776	0,035390	0,035656	0,035763	0,036584	0,036163	0,035467	0,035586	0,035746	0,035720	0,035319
703,00	0,040397	0,040680	0,041985	0,043362	0,046126	0,050239	0,041579	0,044666	0,048839	0,050062	0,046426	0,044084	0,047297	0,042206	0,000018	0,000026	0,000031	-0,000057	0,035820	0,035440	0,035703	0,035841	0,036626	0,036237	0,035525	0,035675	0,035843	0,035801	0,035399
704,00	0,040406	0,040710	0,041982	0,043367	0,046002	0,050158	0,041573	0,044650	0,048775	0,049981	0,046405	0,044062	0,047296	0,042241	0,000013	0,000032	0,000039	-0,000045	0,035883	0,035494	0,035766	0,035925	0,036679	0,036325	0,035596	0,035753	0,035923	0,035897	0,035497
705,00	0,040438	0,040740	0,041998	0,043371	0,045901	0,050082	0,041576	0,044638	0,048722	0,049927	0,046386	0,044045	0,047303	0,042253	-0,000004	0,000045	0,000035	-0,000053	0,035975	0,035556	0,035813	0,036014	0,036752	0,036408	0,035685	0,035819	0,036011	0,035962	0,035572
706,00	0,040488	0,040804	0,042059	0,043403	0,045813	0,050002	0,041573	0,044609	0,048677	0,049874	0,046375	0,044047	0,047307	0,042271	-0,000006	0,000036	0,000031	-0,000067	0,036077	0,035639	0,035895	0,036090	0,036837	0,036472	0,035760	0,035885	0,036098	0,036028	0,035643
707,00	0,040585	0,040864	0,042107	0,043475	0,045745	0,049944	0,041586	0,044601	0,048662	0,049856	0,046414	0,044065	0,047322	0,042322	0,000002	0,000036	0,000037	-0,000070	0,036186	0,035746	0,036008	0,036181	0,036929	0,036551	0,035873	0,035978	0,036201	0,036102	0,035732
708,00	0,040675	0,040965	0,042157	0,043552	0,045724	0,049922	0,041629	0,044612	0,048637	0,049817	0,046447	0,044056	0,047372	0,042407	0,000007	0,000057	0,000038	-0,000040	0,036301	0,035862	0,036133	0,036285	0,037051	0,036673	0,035975	0,036091	0,036293	0,036217	0,035849
709,00	0,040749	0,041028	0,042204	0,043608	0,045704	0,049910	0,041664	0,044647	0,048638	0,049819	0,046493	0,044086	0,047427	0,042476	0,000003	0,000078	0,000037	-0,000019	0,036394	0,035960	0,036224	0,036397	0,037152	0,036802	0,036085	0,036217	0,036375	0,036318	0,035944
710,00	0,040832	0,041110	0,042274	0,043681	0,045685	0,049911	0,041710	0,044685	0,048641	0,049816	0,046517	0,044134	0,047493	0,042541	-0,000008	0,000073	0,000025	0,000010	0,036502	0,036074	0,036321	0,036507	0,037265	0,036934	0,036199	0,036312	0,036476	0,036425	0,036059
711,00	0,040921	0,041185	0,042375	0,043767	0,045688	0,049921	0,041758	0,044739	0,048660	0,049868	0,046583	0,044221	0,047564	0,042618	-0,000011	0,000059	0,000043	0,000013	0,036597	0,036214	0,036433	0,036636	0,037374	0,037057	0,036326	0,036442	0,036601	0,036540	0,036165
712,00	0,041024	0,041297	0,042489	0,043872	0,045719	0,049936	0,041868	0,044816	0,048688	0,049909	0,046676	0,044293	0,047650	0,042731	-0,000013	0,000053	0,000063	0,000035	0,036721	0,036393	0,036560	0,036767	0,037513	0,037197	0,036468	0,036587	0,036744	0,036694	0,036315
713,00	0,041144	0,041419	0,042619	0,044000	0,045783	0,049968	0,041974	0,044906	0,048743	0,049977	0,046795	0,044389	0,047720	0,042840	0,000003	0,000061	0,000063	0,000029	0,036869	0,036579	0,036713	0,036914	0,037676	0,037335	0,036635	0,036766	0,036888	0,036852	0,036452
714,00	0,041259	0,041556	0,042743	0,044139	0,045835	0,050009	0,042086	0,045002	0,048811	0,050039	0,046889	0,044490	0,047819	0,042960	0,000010	0,000064	0,000032	0,000022	0,037030	0,036754	0,036874	0,037062	0,037839	0,037487	0,036798	0,036918	0,037030	0,037017	0,036585
715,00	0,041418	0,041712	0,042893	0,044311	0,045915	0,050086	0,042190	0,045114	0,048898	0,050118	0,046981	0,044607	0,047923	0,043079	0,000029	0,000050	0,000029	0,000025	0,037237	0,036936	0,037078	0,037242	0,038033	0,037641	0,037004	0,037086	0,037186	0,037192	0,036736
716,00	0,041536	0,041841	0,043028	0,044436	0,045998	0,050184	0,042322	0,045260	0,048996	0,050222	0,047086	0,044724	0,048045	0,043223	0,000015	0,000066	0,000037	0,000010	0,037383	0,037085	0,037238	0,037427	0,038184	0,037839	0,037157	0,037255	0,037350	0,037376	0,036915
717,00	0,041712	0,042011	0,043188	0,044589	0,046093	0,050279	0,042453	0,045394	0,049108	0,050315	0,047216	0,044845	0,048142	0,043355	0,000035	0,000059	0,000047	-0,000013	0,037565	0,037296	0,037412	0,037610	0,038368	0,038017	0,037359	0,037416	0,037510	0,037545	0,037100
718,00	0,041864	0,042169	0,043338	0,044727	0,046189	0,050372	0,042591	0,045534	0,049230	0,050443	0,047370	0,044989	0,048281	0,043497	0,000035	0,000068	0,000024	-0,000057	0,037729	0,037486	0,037585	0,037790	0,038536	0,038213	0,037535	0,037601	0,037692	0,037709	0,037295
719,00	0,042070	0,042377	0,043525	0,044919	0,046281	0,050453	0,042722	0,045667	0,049356	0,050547	0,047536	0,045148	0,048424	0,043665	0,000039	0,000042	-0,000001	-0,000065	0,037943	0,037696	0,037815	0,037975	0,038758	0,038398	0,037764	0,037787	0,037884	0,037893	0,037471
720,00	0,042250	0,042551	0,043694	0,045081	0,046394	0,050557	0,042900	0,045841	0,049490	0,050667	0,047685	0,045298	0,048592	0,043860	0,000026	0,000042	-0,000029	-0,000074	0,038145	0,037878	0,038025	0,038166	0,038948	0,038614	0,037968	0,037959	0,038096	0,038101	0,037682
721,00	0,042459	0,042755	0,043882	0,045271	0,046499	0,050665	0,043075	0,046028	0,049643	0,050782	0,047837	0,045451	0,048786	0,044052	0,000029	0,000039	-0,000038	-0,000060	0,038352	0,038083	0,038242	0,038360	0,039175	0,038803	0,038195	0,038131	0,038295	0,038312	0,037891
722,00	0,042674	0,042966	0,044080	0,045463	0,046648	0,050821	0,043273	0,046223	0,049815	0,050915	0,048002	0,045613	0,049005	0,044249	0,000038	0,000019	-0,000045	-0,000041	0,038586	0,038313	0,038447	0,038556	0,039391	0,039012	0,038419	0,038340	0,038513	0,038531	0,038133
723,00	0,042936	0,043208	0,044333	0,045719	0,046797	0,050985	0,043470	0,046403	0,050026	0,051110	0,048214	0,045830	0,049250	0,044474	0,000069	-0,000017	-0,000024	-0,000005	0,038843	0,038562	0,038717	0,038779	0,039642	0,039230	0,038691	0,038604	0,038757	0,038763	0,038395
724,00	0,043185	0,043445	0,044578	0,045965	0,046989	0,051196	0,043680	0,046588	0,050222	0,051310	0,048437	0,046061	0,049492	0,044721	0,000074	-0,000038	-0,000020	0,000002	0,039089	0,038813	0,038972	0,039024	0,039880	0,039489	0,038935	0,038864	0,039017	0,039027	0,038673
725,00	0,043446	0,043692	0,044833	0,046220	0,047185	0,051380	0,043911	0,046806	0,050441	0,051550	0,048669	0,046302	0,049741	0,044963	0,000076	-0,000044	-0,000015	-0,000000	0,039361	0,039099	0,039243	0,039291	0,040153	0,039746	0,039202	0,039125	0,039286	0,039313	0,038963
726,00	0,043702	0,043949	0,045083	0,046474	0,047439	0,051616	0,044174	0,047073	0,050673	0,051780	0,048902	0,046551	0,050001	0,045236	0,000049	-0,000030	-0,000035	0,000007	0,039642	0,039396	0,039511	0,039581	0,040439	0,040032	0,039459	0,039405	0,039568	0,039634	0,039271
727,00	0,043986	0,044227	0,045350	0,046758	0,047705	0,051866	0,044473	0,047371	0,050947	0,052046	0,049183	0,046837	0,050273	0,045539	0,000038	-0,000016	-0,000040	0,000012	0,039947	0,039702	0,039821	0,039903	0,040756	0,040351	0,039764	0,039722	0,039896	0,039964	0,039597
728,00	0,044334	0,044568	0,045687	0,047089	0,047985	0,052159	0,044798	0,047677	0,051256	0,052351	0,049506	0,047170	0,050581	0,045868	0,000045	-0,000008	-0,000045	0,000026	0,040294	0,040062	0,040203	0,040254	0,041132	0,040712	0,040137	0,040081	0,040256	0,040326	0,039949
729,00	0,044719	0,044966	0,046084	0,047458	0,048290	0,052490	0,045151	0,048003	0,051600	0,052690	0,049872	0,047517	0,050925	0,046220	0,000058	-0,000023	-0,000067	0,000019	0,040683	0,040439	0,040619	0,040631	0,041532	0,041101	0,040549	0,040460	0,040635	0,040714	0,040341
730,00	0,045179	0,045424	0,046549	0,047902	0,048667	0,052842	0,045557	0,048382	0,051982	0,053062	0,050265	0,047913	0,051310	0,046600	0,000086	-0,000044	-0,000081	0,000021	0,041150	0,040907	0,041116	0,041047	0,041988	0,041522	0,041028	0,040882	0,041058	0,041133	0,040748
731,00	0,045598	0,045861	0,046975	0,048321	0,049049	0,053215	0,045972	0,048768	0,052369	0,053460	0,050686	0,048331	0,051690	0,047032	0,000071	-0,000056	-0,000065	0,000012	0,041589	0,041335	0,041584	0,041485	0,042408	0,041950	0,041465	0,041349	0,041509	0,041585	0,041192
732,00	0,046007	0,046278	0,047384	0,048736	0,049444	0,053599	0,046397	0,049193	0,052766	0,053872	0,051109	0,048767	0,052087	0,047453	0,000056	-0,000057	-0,000029	-0,000004	0,042027	0,041781	0,042033	0,041946	0,042840	0,042415	0,041898	0,041829	0,041982	0,042017	0,041628
733,00	0,046404	0,046686	0,047803	0,049135	0,049792	0,053961	0,046787	0,049570	0,053122	0,054273	0,051515	0,049175	0,052467	0,047878	0,000042	-0,000067	-0,000021	-0,000007	0,042448	0,042210	0,042448	0,042375	0,043263	0,042844	0,042316	0,042270	0,042424	0,042449	0,042077
734,00	0,046793	0,047092	0,048201	0,049526	0,050153	0,054314	0,047161	0,049956	0,053471	0,054638	0,051876	0,049541	0,052858	0,048270	0,000056	-0,000058	-0,000034	0,000001	0,042860	0,042618	0,042848	0,042786	0,043669	0,043256	0,042726	0,042659	0,042833	0,042844	0,042488
735,00	0,047158	0,047447	0,048552	0,049871	0,050456	0,054594	0,047503	0,050280	0,053784	0,054960	0,052209	0,049883	0,053200	0,048624	0,000067	-0,000061	-0,000028	-0,000011	0,043224	0,042976	0,043201	0,043135	0,044004	0,043610	0,043084	0,043027	0,043192	0,043207	0,042859
736,00	0,047449	0,047728	0,048827	0,050144	0,050737	0,054863	0,047800	0,050591	0,054063	0,055232	0,052490	0,050189	0,053513	0,048947	0,000050	-0,000028	0,000012	-0,000002	0,043537	0,043265	0,043495	0,043461	0,044290	0,043943	0,043386	0,043363	0,043498	0,043557	0,043208
737,00	0,047670	0,047929	0,049041	0,050366	0,050953	0,055063	0,048032	0,050834	0,054275	0,055441	0,052710	0,050422	0,053780	0,049211	0,000036	-0,000036	0,000041	-0,000003	0,043774	0,043510	0,043702	0,043707	0,044548	0,044216	0,043613	0,043634	0,043742	0,043823	0,043521
738,00	0,047879	0,048125	0,049239	0,050559	0,051125	0,055230	0,048182	0,051029	0,054439	0,055629	0,052896	0,050612	0,053989	0,049425	0,000045	-0,000025	0,000036	0,000009	0,043991	0,043736	0,043904	0,043937	0,044803	0,044437	0,043828	0,043843	0,043949	0,044043	0,043762
739,00	0,048025	0,048288	0,049366	0,050700	0,051228	0,055328	0,048302	0,051161	0,054575	0,055770	0,053052	0,050746	0,054143	0,049558	0,000059	-0,000042	0,000042	0,000008	0,044147	0,043909	0,044044	0,044091	0,044960	0,044596	0,043988	0,044016	0,044127	0,044187	0,043929
740,00	0,048166	0,048437	0,049495	0,050814	0,051292	0,055367	0,048374	0,051231	0,054675	0,055870	0,053151	0,050859	0,054255	0,049651	0,000085	-0,000057	0,000048	0,000013	0,044300	0,044049	0,044178	0,044210	0,045094	0,044701	0,044151	0,044163	0,044262	0,044323	0,044019
741,00	0,048228	0,048529	0,049549	0,050868	0,051348	0,055414	0,048469	0,051308	0,054741	0,055919	0,053218	0,050924	0,054305	0,049716	0,000078	-0,000052	0,000053	0,000018	0,044409	0,044133	0,044252	0,044307	0,045168	0,044799	0,044242	0,044273	0,044343	0,044411	0,044087
742,00	0,048282	0,048570	0,049596	0,050906	0,051412	0,055463	0,048527	0,051362	0,054771	0,055937	0,053238	0,050950	0,054318	0,049746	0,000067	-0,000038	0,000035	0,000010	0,044487	0,044185	0,044309	0,044421	0,045233	0,044894	0,044308	0,044337	0,044389	0,044468	0,044133
743,00	0,048335	0,048603	0,049618	0,050914	0,051446	0,055515	0,048585	0,051415	0,054799	0,055950	0,053271	0,050981	0,054281	0,049750	0,000046	-0,000008	0,000030	-0,000020	0,044550	0,044240	0,044372	0,044500	0,045267	0,044985	0,044351	0,044381	0,044436	0,044481	0,044150
744,00	0,048399	0,048634	0,049655	0,050950	0,051471	0,055517	0,048593	0,051429	0,054814	0,055929	0,053278	0,050998	0,054259	0,049724	0,000045	0,000004	0,000029	-0,000029	0,044605	0,044298	0,044446	0,044551	0,045318	0,045037	0,044415	0,044415	0,044489	0,044500	0,044170
745,00	0,048440	0,048668	0,049671	0,050976	0,051459	0,055463	0,048569	0,051416	0,054807	0,055909	0,053290	0,051017	0,054228	0,049712	0,000043	-0,000012	0,000028	-0,000033	0,044668	0,044358	0,044489	0,044538	0,045365	0,045051	0,044460	0,044455	0,044536	0,044520	0,044177
746,00	0,048440	0,048664	0,049677	0,050993	0,051475	0,055426	0,048550	0,051392	0,054791	0,055890	0,053297	0,051009	0,054219	0,049692	0,000032	-0,000034	0,000029	-0,000038	0,044672	0,044378	0,044506	0,044567	0,045378	0,045061	0,044469	0,044478	0,044560	0,044541	0,044191
747,00	0,048418	0,048652	0,049658	0,050981	0,051492	0,055404	0,048556	0,051384	0,054763	0,055877	0,053297	0,051002	0,054202	0,049668	0,000025	-0,000034	0,000038	-0,000047	0,044671	0,044385	0,044508	0,044577	0,045369	0,045062	0,044474	0,044481	0,044584	0,044545	0,044200
748,00	0,048389	0,048642	0,049657	0,050952	0,051509	0,055402	0,048564	0,051401	0,054756	0,055852	0,053292	0,051002	0,054174	0,049632	0,000035	-0,000027	0,000048	-0,000062	0,044660	0,044380	0,044551	0,044598	0,045383	0,045075	0,044494	0,044484	0,044592	0,044524	0,044186
749,00	0,048389	0,048652	0,049670	0,050944	0,051498	0,055394	0,048568	0,051424	0,054732	0,055822	0,053271	0,050985	0,054162	0,049610	0,000054	-0,000005	0,000027	-0,000045	0,044691	0,044402	0,044597	0,044598	0,045427	0,045099	0,044533	0,044472	0,044603	0,044535	0,044217
750,00	0,048378	0,048650	0,049679	0,050941	0,051469	0,055377	0,048559	0,051424	0,054719	0,055793	0,053256	0,050963	0,054160	0,049613	0,000071	-0,000001	0,000031	-0,000015	0,044703	0,044428	0,044647	0,044625	0,045459	0,045141	0,044566	0,044484	0,044625	0,044568	0,044237
751,00	0,048351	0,048638	0,049656	0,050941	0,051445	0,055348	0,048565	0,051437	0,054699	0,055769	0,053241	0,050935	0,054185	0,049630	0,000056	-0,000003	0,000020	-0,000000	0,044725	0,044420	0,044665	0,044663	0,045478	0,045160	0,044579	0,044486	0,044668	0,044608	0,044320
752,00	0,048333	0,048634	0,049648	0,050932	0,051434	0,055331	0,048584	0,051458	0,054698	0,055748	0,053260	0,050935	0,054158	0,049628	0,000040	0,000019	0,000030	-0,000007	0,044746	0,044429	0,044697	0,044719	0,045488	0,045167	0,044600	0,044517	0,044716	0,044613	0,044322
753,00	0,048316	0,048640	0,049631	0,050916	0,051416	0,055299	0,048589	0,051501	0,054660	0,055698	0,053253	0,050915	0,054137	0,049615	0,000001	0,000039	0,000014	-0,000025	0,044767	0,044404	0,044693	0,044733	0,045496	0,045160	0,044603	0,044527	0,044710	0,044597	0,044340
754,00	0,048335	0,048662	0,049661	0,050919	0,051393	0,055249	0,048600	0,051513	0,054624	0,055670	0,053245	0,050880	0,054132	0,049601	0,000011	0,000050	-0,000004	-0,000009	0,044789	0,044437	0,044716	0,044737	0,045513	0,045174	0,044623	0,044531	0,044698	0,044604	0,044341
755,00	0,048327	0,048668	0,049638	0,050902	0,051370	0,055199	0,048587	0,051527	0,054586	0,055620	0,053194	0,050837	0,054138	0,049595	0,000012	0,000046	-0,000024	0,000010	0,044777	0,044428	0,044712	0,044731	0,045507	0,045193	0,044626	0,044531	0,044697	0,044619	0,044355
756,00	0,048326	0,048665	0,049628	0,050883	0,051336	0,055124	0,048581	0,051512	0,054548	0,055596	0,053178	0,050794	0,054113	0,049572	0,000035	0,000038	-0,000039	0,000017	0,044781	0,044440	0,044732	0,044724	0,045524	0,045190	0,044630	0,044529	0,044709	0,044653	0,044371
757,00	0,048331	0,048662	0,049616	0,050868	0,051282	0,055076	0,048543	0,051487	0,054489	0,055548	0,053143	0,050764	0,054047	0,049538	0,000044	0,000025	-0,000045	-0,000011	0,044787	0,044444	0,044720	0,044715	0,045526	0,045171	0,044650	0,044541	0,044702	0,044653	0,044359
758,00	0,048320	0,048661	0,049615	0,050867	0,051261	0,055025	0,048540	0,051454	0,054429	0,055502	0,053118	0,050734	0,053973	0,049501	0,000050	0,000016	-0,000038	-0,000042	0,044823	0,044463	0,044735	0,044707	0,045539	0,045162	0,044674	0,044565	0,044691	0,044658	0,044369
759,00	0,048306	0,048648	0,049618	0,050855	0,051242	0,055019	0,048522	0,051432	0,054397	0,055455	0,053090	0,050714	0,053911	0,049460	0,000047	0,000003	-0,000026	-0,000051	0,044834	0,044498	0,044746	0,044712	0,045532	0,045158	0,044701	0,044592	0,044696	0,044653	0,044354
760,00	0,048267	0,048618	0,049594	0,050832	0,051257	0,055002	0,048532	0,051426	0,054362	0,055403	0,053078	0,050667	0,053849	0,049440	0,000028	0,000030	-0,000014	-0,000051	0,044810	0,044506	0,044763	0,044724	0,045525	0,045166	0,044690	0,044587	0,044688	0,044655	0,044349
761,00	0,048264	0,048586	0,049556	0,050804	0,051214	0,054963	0,048509	0,051402	0,054316	0,055351	0,053045	0,050607	0,053796	0,049402	0,000038	0,000018	-0,000010	-0,000054	0,044782	0,044500	0,044759	0,044717	0,045514	0,045171	0,044685	0,044546	0,044664	0,044617	0,044314
762,00	0,048255	0,048567	0,049552	0,050789	0,051184	0,054918	0,048495	0,051370	0,054249	0,055317	0,053028	0,050572	0,053766	0,049372	0,000053	0,000029	0,000017	-0,000057	0,044795	0,044481	0,044750	0,044732	0,045511	0,045202	0,044677	0,044522	0,044655	0,044592	0,044298
763,00	0,048267	0,048556	0,049557	0,050770	0,051152	0,054892	0,048481	0,051354	0,054206	0,055278	0,052992	0,050554	0,053745	0,049326	0,000071	0,000031	0,000035	-0,000034	0,044825	0,044481	0,044713	0,044757	0,045495	0,045211	0,044696	0,044505	0,044632	0,044568	0,044277
764,00	0,048240	0,048537	0,049565	0,050761	0,051124	0,054845	0,048447	0,051328	0,054151	0,055240	0,052970	0,050553	0,053715	0,049308	0,000075	0,000059	0,000040	-0,000007	0,044834	0,044497	0,044690	0,044770	0,045491	0,045199	0,044716	0,044493	0,044626	0,044575	0,044277
765,00	0,048209	0,048523	0,049512	0,050706	0,051070	0,054780	0,048394	0,051286	0,054119	0,055181	0,052909	0,050530	0,053692	0,049303	0,000070	0,000069	0,000015	0,000020	0,044807	0,044475	0,044657	0,044719	0,045464	0,045155	0,044700	0,044486	0,044588	0,044562	0,044293
766,00	0,048158	0,048485	0,049447	0,050660	0,051005	0,054715	0,048339	0,051231	0,054079	0,055124	0,052853	0,050504	0,053671	0,049271	0,000074	0,000084	0,000018	0,000019	0,044777	0,044459	0,044636	0,044660	0,045439	0,045115	0,044655	0,044462	0,044579	0,044529	0,044289
767,00	0,048106	0,048434	0,049386	0,050603	0,050942	0,054650	0,048304	0,051183	0,054043	0,055060	0,052793	0,050455	0,053660	0,049210	0,000055	0,000093	0,000018	0,000016	0,044742	0,044415	0,044610	0,044603	0,045378	0,045070	0,044607	0,044423	0,044542	0,044498	0,044294
768,00	0,048058	0,048377	0,049327	0,050570	0,050892	0,054586	0,048263	0,051127	0,053989	0,055002	0,052736	0,050405	0,053612	0,049155	0,000039	0,000098	0,000032	0,000011	0,044720	0,044400	0,044619	0,044591	0,045343	0,045049	0,044576	0,044385	0,044525	0,044451	0,044263
769,00	0,047995	0,048323	0,049260	0,050514	0,050820	0,054534	0,048209	0,051044	0,053909	0,054924	0,052645	0,050328	0,053550	0,049109	0,000029	0,000089	-0,000003	0,000024	0,044673	0,044344	0,044593	0,044566	0,045304	0,045015	0,044534	0,044316	0,044481	0,044418	0,044238
770,00	0,047956	0,048269	0,049231	0,050467	0,050759	0,054465	0,048148	0,050964	0,053847	0,054882	0,052579	0,050280	0,053481	0,049073	0,000054	0,000061	-0,000009	0,000041	0,044657	0,044308	0,044567	0,044533	0,045288	0,044998	0,044501	0,044274	0,044461	0,044365	0,044190
771,00	0,047857	0,048166	0,049162	0,050367	0,050684	0,054401	0,048078	0,050896	0,053785	0,054837	0,052508	0,050226	0,053397	0,049016	0,000049	0,000031	-0,000027	0,000040	0,044592	0,044227	0,044469	0,044481	0,045212	0,044967	0,044431	0,044198	0,044429	0,044299	0,044136
772,00	0,047764	0,048079	0,049087	0,050266	0,050614	0,054314	0,048010	0,050850	0,053740	0,054806	0,052468	0,050195	0,053313	0,048956	0,000028	0,000033	0,000007	0,000008	0,044524	0,044162	0,044402	0,044426	0,045125	0,044942	0,044351	0,044171	0,044408	0,044261	0,044090
773,00	0,047632	0,047965	0,048939	0,050122	0,050521	0,054254	0,047917	0,050797	0,053667	0,054717	0,052394	0,050136	0,053239	0,048878	-0,000026	0,000062	-0,000004	-0,000006	0,044408	0,044058	0,044302	0,044367	0,045002	0,044885	0,044238	0,044122	0,044376	0,044223	0,044056
774,00	0,047555	0,047893	0,048859	0,050041	0,050435	0,054160	0,047836	0,050742	0,053586	0,054621	0,052323	0,050067	0,053172	0,048794	-0,000042	0,000086	-0,000006	-0,000014	0,044329	0,044018	0,044240	0,044310	0,044934	0,044824	0,044187	0,044081	0,044332	0,044196	0,044008
775,00	0,047478	0,047785	0,048751	0,049944	0,050336	0,054039	0,047753	0,050659	0,053503	0,054516	0,052230	0,049973	0,053099	0,048706	-0,000047	0,000056	-0,000032	-0,000017	0,044250	0,043966	0,044165	0,044234	0,044849	0,044748	0,044138	0,044020	0,044282	0,044115	0,043945
776,00	0,047404	0,047708	0,048682	0,049881	0,050257	0,053935	0,047697	0,050588	0,053420	0,054443	0,052148	0,049890	0,053005	0,048630	-0,000043	0,000042	-0,000017	-0,000033	0,044194	0,043911	0,044105	0,044189	0,044781	0,044689	0,044071	0,043965	0,044204	0,044041	0,043861
777,00	0,047321	0,047624	0,048584	0,049804	0,050167	0,053830	0,047628	0,050501	0,053331	0,054349	0,052055	0,049797	0,052918	0,048532	-0,000042	0,000037	-0,000014	-0,000055	0,044128	0,043833	0,044032	0,044125	0,044708	0,044615	0,043995	0,043895	0,044120	0,043972	0,043774
778,00	0,047257	0,047561	0,048517	0,049751	0,050080	0,053740	0,047561	0,050448	0,053233	0,054261	0,051974	0,049714	0,052830	0,048445	-0,000041	0,000067	-0,000004	-0,000055	0,044075	0,043768	0,043981	0,044079	0,044651	0,044552	0,043932	0,043851	0,044052	0,043897	0,043688
779,00	0,047173	0,047482	0,048424	0,049647	0,049991	0,053624	0,047476	0,050390	0,053116	0,054140	0,051857	0,049584	0,052749	0,048336	-0,000039	0,000071	-0,000031	-0,000062	0,044005	0,043703	0,043906	0,043992	0,044575	0,044478	0,043867	0,043762	0,043964	0,043813	0,043609
780,00	0,047104	0,047387	0,048329	0,049534	0,049899	0,053509	0,047395	0,050314	0,052996	0,054026	0,051735	0,049485	0,052675	0,048244	-0,000045	0,000080	-0,000054	-0,000037	0,043924	0,043627	0,043824	0,043912	0,044477	0,044406	0,043787	0,043687	0,043875	0,043736	0,043546
781,00	0,047021	0,047281	0,048237	0,049415	0,049808	0,053369	0,047283	0,050202	0,052881	0,053900	0,051613	0,049369	0,052571	0,048126	-0,000052	0,000071	-0,000066	-0,000031	0,043850	0,043553	0,043737	0,043813	0,044382	0,044314	0,043717	0,043586	0,043775	0,043675	0,043471
782,00	0,046936	0,047191	0,048149	0,049315	0,049702	0,053222	0,047172	0,050076	0,052759	0,053769	0,051514	0,049266	0,052456	0,048012	-0,000052	0,000065	-0,000051	-0,000014	0,043777	0,043466	0,043653	0,043721	0,044300	0,044205	0,043645	0,043504	0,043676	0,043592	0,043383
783,00	0,046843	0,047105	0,048060	0,049240	0,049588	0,053079	0,047043	0,049962	0,052630	0,053639	0,051422	0,049146	0,052316	0,047904	-0,000035	0,000051	-0,000022	-0,000018	0,043709	0,043393	0,043574	0,043623	0,044229	0,044093	0,043581	0,043405	0,043588	0,043482	0,043281
784,00	0,046705	0,047005	0,047932	0,049137	0,049472	0,052960	0,046955	0,049851	0,052490	0,053505	0,051339	0,049028	0,052201	0,047796	-0,000042	0,000054	-0,000007	0,000001	0,043604	0,043285	0,043474	0,043547	0,044127	0,044002	0,043488	0,043311	0,043493	0,043366	0,043189
785,00	0,046570	0,046900	0,047804	0,049068	0,049368	0,052825	0,046856	0,049734	0,052364	0,053389	0,051252	0,048928	0,052074	0,047692	-0,000047	0,000044	0,000001	-0,000006	0,043511	0,043209	0,043381	0,043468	0,044024	0,043890	0,043406	0,043239	0,043403	0,043252	0,043091
786,00	0,046421	0,046791	0,047694	0,048935	0,049252	0,052708	0,046769	0,049614	0,052235	0,053257	0,051137	0,048799	0,051979	0,047596	-0,000076	0,000033	-0,000001	0,000011	0,043415	0,043112	0,043281	0,043396	0,043892	0,043778	0,043295	0,043162	0,043289	0,043174	0,043019
787,00	0,046297	0,046674	0,047592	0,048816	0,049119	0,052578	0,046650	0,049476	0,052114	0,053127	0,051009	0,048676	0,051889	0,047499	-0,000099	0,000017	-0,000000	0,000012	0,043317	0,043022	0,043172	0,043289	0,043788	0,043648	0,043192	0,043049	0,043192	0,043080	0,042924
788,00	0,046168	0,046533	0,047487	0,048661	0,048979	0,052455	0,046533	0,049361	0,052021	0,053018	0,050912	0,048570	0,051802	0,047387	-0,000137	0,000009	0,000031	0,000028	0,043198	0,042911	0,043051	0,043180	0,043671	0,043530	0,043089	0,042964	0,043136	0,042990	0,042837
789,00	0,046034	0,046394	0,047333	0,048529	0,048860	0,052328	0,046425	0,049275	0,051912	0,052886	0,050805	0,048447	0,051688	0,047253	-0,000162	-0,000000	0,000044	0,000017	0,043074	0,042776	0,042921	0,043075	0,043552	0,043441	0,042978	0,042851	0,043081	0,042854	0,042719
790,00	0,045929	0,046308	0,047199	0,048412	0,048747	0,052207	0,046327	0,049173	0,051785	0,052762	0,050679	0,048303	0,051581	0,047121	-0,000143	-0,000001	0,000047	0,000009	0,042977	0,042670	0,042820	0,042984	0,043435	0,043369	0,042874	0,042751	0,042994	0,042749	0,042622
791,00	0,045826	0,046216	0,047072	0,048291	0,048618	0,052089	0,046228	0,049038	0,051612	0,052581	0,050500	0,048110	0,051458	0,047006	-0,000111	0,000005	-0,000017	-0,000009	0,042895	0,042566	0,042715	0,042893	0,043319	0,043321	0,042777	0,042589	0,042855	0,042641	0,042504
792,00	0,045728	0,046122	0,046971	0,048200	0,048484	0,051966	0,046109	0,048871	0,051464	0,052427	0,050354	0,047968	0,051353	0,046881	-0,000074	0,000013	-0,000043	-0,000021	0,042803	0,042482	0,042637	0,042781	0,043214	0,043207	0,042681	0,042463	0,042717	0,042545	0,042393
793,00	0,045622	0,046001	0,046872	0,048106	0,048365	0,051831	0,045963	0,048736	0,051330	0,052297	0,050229	0,047858	0,051218	0,046772	-0,000063	0,000003	-0,000040	-0,000014	0,042727	0,042394	0,042566	0,042680	0,043144	0,043093	0,042594	0,042365	0,042598	0,042443	0,042261
794,00	0,045530	0,045914	0,046752	0,048010	0,048247	0,051693	0,045852	0,048623	0,051219	0,052190	0,050132	0,047776	0,051113	0,046644	-0,000070	-0,000009	-0,000007	-0,000011	0,042642	0,042297	0,042485	0,042586	0,043071	0,042973	0,042514	0,042279	0,042499	0,042353	0,042164
795,00	0,045432	0,045806	0,046633	0,047887	0,048130	0,051547	0,045750	0,048537	0,051110	0,052111	0,050035	0,047680	0,050995	0,046518	-0,000095	-0,000016	-0,000009	-0,000022	0,042559	0,042187	0,042369	0,042479	0,042988	0,042877	0,042434	0,042173	0,042422	0,042262	0,042060
796,00	0,045329	0,045708	0,046515	0,047754	0,048021	0,051432	0,045673	0,048453	0,051023	0,052012	0,049926	0,047592	0,050870	0,046391	-0,000113	-0,000001	-0,000025	-0,000057	0,042448	0,042073	0,042239	0,042378	0,042861	0,042801	0,042339	0,042064	0,042349	0,042143	0,041973
797,00	0,045245	0,045612	0,046437	0,047653	0,047923	0,051336	0,045558	0,048342	0,050922	0,051933	0,049820	0,047503	0,050744	0,046294	-0,000099	0,000024	-0,000014	-0,000066	0,042334	0,042001	0,042146	0,042284	0,042743	0,042714	0,042226	0,041969	0,042275	0,042051	0,041882
798,00	0,045185	0,045538	0,046375	0,047563	0,047823	0,051241	0,045426	0,048216	0,050821	0,051839	0,049730	0,047425	0,050622	0,046232	-0,000075	0,000029	0,000005	-0,000067	0,042244	0,041962	0,042102	0,042204	0,042665	0,042632	0,042144	0,041908	0,042205	0,041956	0,041802
799,00	0,045113	0,045467	0,046312	0,047425	0,047710	0,051141	0,045316	0,048100	0,050705	0,051742	0,049635	0,047328	0,050539	0,046156	-0,000062	0,000022	-0,000007	-0,000047	0,042169	0,041917	0,042038	0,042132	0,042596	0,042538	0,042065	0,041842	0,042096	0,041907	0,041738
800,00	0,045055	0,045417	0,046259	0,047300	0,047640	0,051069	0,045255	0,048042	0,050636	0,051674	0,049572	0,047262	0,050489	0,046102	-0,000064	0,000007	-0,000039	-0,000040	0,042137	0,041876	0,041993	0,042080	0,042559	0,042482	0,042022	0,041800	0,042022	0,041863	0,041705
